Subject_ID,Time,PPG
20,0.0,-6.59381912805577e-05
20,0.01001001001001001,0.09312691505039622
20,0.02002002002002002,0.17892082301164117
20,0.03003003003003003,0.26461810496041566
20,0.04004004004004004,0.34474068183633105
20,0.050050050050050046,0.42688971043264845
20,0.06006006006006006,0.4936991750788762
20,0.07007007007007007,0.5654400331531265
20,0.08008008008008008,0.6220651243546952
20,0.09009009009009009,0.6654815871611663
20,0.10010010010010009,0.7182077154721366
20,0.11011011011011011,0.7380879636237757
20,0.12012012012012012,0.7703336807138128
20,0.13013013013013014,0.7751763576162383
20,0.14014014014014015,0.7839294233652747
20,0.15015015015015015,0.777286578602009
20,0.16016016016016016,0.7536207720835035
20,0.17017017017017017,0.7405889906310057
20,0.18018018018018017,0.7150014315517366
20,0.19019019019019018,0.6760833524010946
20,0.20020020020020018,0.6350965818179726
20,0.21021021021021022,0.5894794913335575
20,0.22022022022022023,0.5446317061177685
20,0.23023023023023023,0.49178462589211785
20,0.24024024024024024,0.4401554673222835
20,0.2502502502502503,0.3926702139856553
20,0.2602602602602603,0.3411302053211632
20,0.2702702702702703,0.28557052200887156
20,0.2802802802802803,0.2552956734570377
20,0.2902902902902903,0.2088871710554108
20,0.3003003003003003,0.15684810181464404
20,0.3103103103103103,0.12920171315420806
20,0.3203203203203203,0.10470038567403966
20,0.3303303303303303,0.07856248790816084
20,0.34034034034034033,0.0520303375211172
20,0.35035035035035034,0.04184093297436894
20,0.36036036036036034,0.016439834786797156
20,0.37037037037037035,0.01875258222833477
20,0.38038038038038036,0.0018919995408512346
20,0.39039039039039036,0.00327970415660431
20,0.40040040040040037,0.0030005973603176835
20,0.41041041041041043,-0.007772902316669341
20,0.42042042042042044,-0.001161735575863906
20,0.43043043043043044,-0.002164397534653869
20,0.44044044044044045,-0.0003018871379811762
20,0.45045045045045046,-0.007298418518810582
20,0.46046046046046046,-0.006678646239426336
20,0.47047047047047047,-0.015841374229747518
20,0.4804804804804805,-0.0305741182872772
20,0.4904904904904905,-0.04394023393395948
20,0.5005005005005005,-0.06949214201261551
20,0.5105105105105106,-0.10185534503804418
20,0.5205205205205206,-0.12173541252455933
20,0.5305305305305306,-0.1599096510952034
20,0.5405405405405406,-0.19443340899952244
20,0.5505505505505506,-0.24910807927337691
20,0.5605605605605606,-0.280094936747078
20,0.5705705705705706,-0.3299093679466535
20,0.5805805805805806,-0.3768626091518155
20,0.5905905905905906,-0.42719513971997136
20,0.6006006006006006,-0.48685325280322694
20,0.6106106106106106,-0.5217738398659291
20,0.6206206206206206,-0.5762762716329392
20,0.6306306306306306,-0.6270003147262403
20,0.6406406406406406,-0.6669406407226938
20,0.6506506506506506,-0.7012183716483908
20,0.6606606606606606,-0.7325754339719387
20,0.6706706706706707,-0.7501067699480868
20,0.6806806806806807,-0.7689229856017542
20,0.6906906906906907,-0.7879262558150119
20,0.7007007007007007,-0.7765833290625843
20,0.7107107107107107,-0.7681301297233865
20,0.7207207207207207,-0.7435818701747555
20,0.7307307307307307,-0.7184834698487922
20,0.7407407407407407,-0.6851475912708915
20,0.7507507507507507,-0.6243490730529805
20,0.7607607607607607,-0.5764809300770316
20,0.7707707707707707,-0.5206935894504819
20,0.7807807807807807,-0.44474428856890064
20,0.7907907907907907,-0.36246760869740446
20,0.8008008008008007,-0.282772154237559
20,0.8108108108108109,-0.19931152577362485
20,0.8208208208208209,-0.11008238598640627
20,0.8308308308308309,-0.02856155193004164
20,0.8408408408408409,0.06202705692409713
20,0.8508508508508509,0.15544338272050803
20,0.8608608608608609,0.2441532607466528
20,0.8708708708708709,0.33049118085083157
20,0.8808808808808809,0.41269194998353764
20,0.8908908908908909,0.4838584640655768
20,0.9009009009009009,0.5470783277814324
20,0.9109109109109109,0.6124992500294361
20,0.9209209209209209,0.6612681791944586
20,0.9309309309309309,0.7006508992129333
20,0.9409409409409409,0.7290126520251416
20,0.950950950950951,0.7560921262813824
20,0.960960960960961,0.7782149947182802
20,0.970970970970971,0.773479727972912
20,0.980980980980981,0.7704268827867371
20,0.990990990990991,0.7604297454420024
20,1.001001001001001,0.7402266765167752
20,1.011011011011011,0.7144645632441889
20,1.021021021021021,0.6857583290351889
20,1.031031031031031,0.6469731261001377
20,1.0410410410410411,0.5998901331647359
20,1.0510510510510511,0.5615664619431229
20,1.0610610610610611,0.49789556435891624
20,1.0710710710710711,0.45761448367310315
20,1.0810810810810811,0.4056851264785751
20,1.0910910910910911,0.35411521349739455
20,1.1011011011011012,0.3144515184887716
20,1.1111111111111112,0.2666457122749675
20,1.1211211211211212,0.21578934756745743
20,1.1311311311311312,0.17179065174237632
20,1.1411411411411412,0.14429151450094085
20,1.1511511511511512,0.10720688101127686
20,1.1611611611611612,0.07410412755211283
20,1.1711711711711712,0.05784245990540136
20,1.1811811811811812,0.04540812646446679
20,1.1911911911911912,0.021272774951352044
20,1.2012012012012012,0.0033341718925647117
20,1.2112112112112112,0.00709958114441633
20,1.2212212212212212,0.006178689606042281
20,1.2312312312312312,-0.0021688417067326736
20,1.2412412412412412,0.0011890233805295308
20,1.2512512512512513,0.0018572043390378597
20,1.2612612612612613,-0.005658422720729667
20,1.2712712712712713,-0.0008723979131330995
20,1.2812812812812813,0.0011954193093090502
20,1.2912912912912913,-0.006096119747565877
20,1.3013013013013013,-0.015142983524198766
20,1.3113113113113113,-0.031131748940998908
20,1.3213213213213213,-0.03765663066107493
20,1.3313313313313313,-0.06192886667538687
20,1.3413413413413413,-0.08995930507003919
20,1.3513513513513513,-0.1153163270346369
20,1.3613613613613613,-0.14457441156595802
20,1.3713713713713713,-0.1870882171060475
20,1.3813813813813813,-0.2223130588552456
20,1.3913913913913913,-0.26360236206015286
20,1.4014014014014013,-0.321414096039315
20,1.4114114114114114,-0.36793444826568383
20,1.4214214214214214,-0.4217488613251857
20,1.4314314314314314,-0.46767274514154017
20,1.4414414414414414,-0.5183886641337404
20,1.4514514514514514,-0.5666868693740871
20,1.4614614614614614,-0.6147539825408099
20,1.4714714714714714,-0.6542238002240298
20,1.4814814814814814,-0.6925850604656129
20,1.4914914914914914,-0.7222521624260372
20,1.5015015015015014,-0.753413852250473
20,1.5115115115115114,-0.7703895916714779
20,1.5215215215215214,-0.7800554533886226
20,1.5315315315315314,-0.7808916773359246
20,1.5415415415415414,-0.7771641618968432
20,1.5515515515515514,-0.7550024581539239
20,1.5615615615615615,-0.7354275407916233
20,1.5715715715715715,-0.6845525073899963
20,1.5815815815815815,-0.6519500730678526
20,1.5915915915915915,-0.5848811760644209
20,1.6016016016016015,-0.5340107915276628
20,1.6116116116116117,-0.46434439838929065
20,1.6216216216216217,-0.3904557946853156
20,1.6316316316316317,-0.30254826088191694
20,1.6416416416416417,-0.2266791913075026
20,1.6516516516516517,-0.13209278472237015
20,1.6616616616616617,-0.04661395673252276
20,1.6716716716716717,0.05049059173402227
20,1.6816816816816818,0.13639695657847117
20,1.6916916916916918,0.21913225906808312
20,1.7017017017017018,0.3066695515790515
20,1.7117117117117118,0.3891985838224315
20,1.7217217217217218,0.4626816229485723
20,1.7317317317317318,0.5247391326526168
20,1.7417417417417418,0.5983853715192752
20,1.7517517517517518,0.6481553538586488
20,1.7617617617617618,0.6871854995120745
20,1.7717717717717718,0.721121139806213
20,1.7817817817817818,0.7479673929188064
20,1.7917917917917918,0.7654529874011661
20,1.8018018018018018,0.7903939891387458
20,1.8118118118118118,0.7697160977933827
20,1.8218218218218218,0.7638696815084454
20,1.8318318318318318,0.7536426570424959
20,1.8418418418418419,0.7295643287195008
20,1.8518518518518519,0.7043148056125578
20,1.8618618618618619,0.6503373013691452
20,1.8718718718718719,0.6162126040038595
20,1.8818818818818819,0.5684209376869287
20,1.8918918918918919,0.5249156865273964
20,1.901901901901902,0.47009512586199825
20,1.911911911911912,0.42250920365876754
20,1.921921921921922,0.359426537258161
20,1.931931931931932,0.3138169758511023
20,1.941941941941942,0.26960038586443225
20,1.951951951951952,0.2336592353268223
20,1.961961961961962,0.18218905470067098
20,1.971971971971972,0.15628467097635299
20,1.981981981981982,0.1175585159449642
20,1.991991991991992,0.0837610667696683
20,2.002002002002002,0.058912410896655554
20,2.012012012012012,0.04555082439912869
20,2.022022022022022,0.02267768217233375
20,2.032032032032032,0.0154972307849004
20,2.042042042042042,0.001638038582758924
20,2.052052052052052,0.001819577498808806
20,2.062062062062062,0.0015200916473012472
20,2.0720720720720722,0.007034224224667177
20,2.0820820820820822,-0.012484983781277704
20,2.0920920920920922,-0.004617507460290183
20,2.1021021021021022,-0.004856476898524819
20,2.1121121121121122,-0.0017745199042275251
20,2.1221221221221223,0.003918309286765627
20,2.1321321321321323,-0.012388818599431922
20,2.1421421421421423,-0.028090990033134117
20,2.1521521521521523,-0.04420642926728194
20,2.1621621621621623,-0.05740697039396809
20,2.1721721721721723,-0.08965352721267518
20,2.1821821821821823,-0.10048307903120021
20,2.1921921921921923,-0.13292982779526347
20,2.2022022022022023,-0.17403594694556832
20,2.2122122122122123,-0.2211365493689171
20,2.2222222222222223,-0.2767070318339158
20,2.2322322322322323,-0.3134545055443549
20,2.2422422422422423,-0.3616648620284856
20,2.2522522522522523,-0.4008418603866278
20,2.2622622622622623,-0.4602295135335429
20,2.2722722722722724,-0.5058310361959408
20,2.2822822822822824,-0.5552763178195227
20,2.2922922922922924,-0.5980517221552815
20,2.3023023023023024,-0.650357617198108
20,2.3123123123123124,-0.6867002227318784
20,2.3223223223223224,-0.72141824628594
20,2.3323323323323324,-0.7460524955793647
20,2.3423423423423424,-0.7632277335961458
20,2.3523523523523524,-0.7679057427866394
20,2.3623623623623624,-0.7811586815195095
20,2.3723723723723724,-0.7686630109110367
20,2.3823823823823824,-0.7546451090074404
20,2.3923923923923924,-0.7318526940426252
20,2.4024024024024024,-0.7084389863300826
20,2.4124124124124124,-0.6606252300516715
20,2.4224224224224224,-0.6109477735767999
20,2.4324324324324325,-0.5485593899833311
20,2.4424424424424425,-0.4827519719315223
20,2.4524524524524525,-0.41099230416511706
20,2.4624624624624625,-0.3356339348926863
20,2.4724724724724725,-0.25257624415340824
20,2.4824824824824825,-0.16645337047613923
20,2.4924924924924925,-0.0761991892096828
20,2.5025025025025025,0.008836942975852313
20,2.5125125125125125,0.11203458685421148
20,2.5225225225225225,0.2093493927499602
20,2.5325325325325325,0.2909285752323663
20,2.5425425425425425,0.37170074268099396
20,2.5525525525525525,0.4479431736349195
20,2.5625625625625625,0.5119735652745612
20,2.5725725725725725,0.5782587697852684
20,2.5825825825825826,0.6226395578775189
20,2.5925925925925926,0.6825808827040402
20,2.6026026026026026,0.7199149310357464
20,2.6126126126126126,0.7524268891125496
20,2.6226226226226226,0.7597849961289312
20,2.6326326326326326,0.773894312216168
20,2.6426426426426426,0.7840069774220685
20,2.6526526526526526,0.7688316011254
20,2.6626626626626626,0.756921939269896
20,2.6726726726726726,0.726897264215779
20,2.6826826826826826,0.6992819022919531
20,2.6926926926926926,0.6569457671091431
20,2.7027027027027026,0.6202565963874777
20,2.7127127127127126,0.5719371696802583
20,2.7227227227227226,0.5216086476167692
20,2.7327327327327327,0.4836057781429216
20,2.7427427427427427,0.43499266823720034
20,2.7527527527527527,0.3756468630819076
20,2.7627627627627627,0.34081686974020486
20,2.7727727727727727,0.28009543458810093
20,2.7827827827827827,0.23066571338266295
20,2.7927927927927927,0.20024587778734382
20,2.8028028028028027,0.16113401722529203
20,2.8128128128128127,0.1152937994599934
20,2.8228228228228227,0.09272159008219609
20,2.8328328328328327,0.07059761904788543
20,2.8428428428428427,0.0453273491291084
20,2.8528528528528527,0.031707134179289255
20,2.8628628628628627,0.026021468180268632
20,2.8728728728728727,0.007544947185568405
20,2.8828828828828827,0.013438537383080191
20,2.8928928928928928,0.0050037496845631545
20,2.9029029029029028,-0.00267176154025154
20,2.9129129129129128,0.0037852829134314586
20,2.9229229229229228,0.014815255640177799
20,2.932932932932933,-0.007523904335664515
20,2.942942942942943,-0.0025949557728613963
20,2.952952952952953,-0.008356414561468248
20,2.962962962962963,-0.013500824424290035
20,2.972972972972973,-0.02996094454337752
20,2.982982982982983,-0.028775262474684968
20,2.992992992992993,-0.06467528074690072
20,3.003003003003003,-0.0703353181634127
20,3.013013013013013,-0.09738022060101469
20,3.023023023023023,-0.13035958771507214
20,3.033033033033033,-0.17185638724487337
20,3.043043043043043,-0.20720216736400163
20,3.053053053053053,-0.2587935483350124
20,3.063063063063063,-0.29528151266045954
20,3.073073073073073,-0.34071089860473863
20,3.083083083083083,-0.3891241788284993
20,3.093093093093093,-0.44027677459835063
20,3.103103103103103,-0.4963330142922634
20,3.113113113113113,-0.5421328997546109
20,3.123123123123123,-0.5898343214168401
20,3.133133133133133,-0.6325905907551285
20,3.143143143143143,-0.6643223176064897
20,3.153153153153153,-0.7063300170368046
20,3.163163163163163,-0.7371753162875679
20,3.173173173173173,-0.7687028754216614
20,3.183183183183183,-0.771692307830449
20,3.193193193193193,-0.7719077712342388
20,3.203203203203203,-0.7769492919647148
20,3.2132132132132134,-0.7664148382671604
20,3.2232232232232234,-0.7393665073417929
20,3.2332332332332334,-0.7080934779275505
20,3.2432432432432434,-0.6696952183555224
20,3.2532532532532534,-0.6166589028786977
20,3.2632632632632634,-0.5656577049867172
20,3.2732732732732734,-0.5001762786898156
20,3.2832832832832834,-0.4307806745508417
20,3.2932932932932935,-0.3460337308558968
20,3.3033033033033035,-0.269523920720558
20,3.3133133133133135,-0.17782978967940147
20,3.3233233233233235,-0.09006981347680254
20,3.3333333333333335,0.003183033056406074
20,3.3433433433433435,0.09117312270045615
20,3.3533533533533535,0.19415652806752387
20,3.3633633633633635,0.2591117531657913
20,3.3733733733733735,0.3492159275352099
20,3.3833833833833835,0.4322505270962551
20,3.3933933933933935,0.4946231256733279
20,3.4034034034034035,0.5579488324312697
20,3.4134134134134135,0.6300561525717193
20,3.4234234234234235,0.6624190784996739
20,3.4334334334334335,0.7150617003986602
20,3.4434434434434436,0.7388513259922518
20,3.4534534534534536,0.7673652148370517
20,3.4634634634634636,0.786523012170831
20,3.4734734734734736,0.7837815494340767
20,3.4834834834834836,0.7756482811499823
20,3.4934934934934936,0.764007916550264
20,3.5035035035035036,0.7368502883442306
20,3.5135135135135136,0.7083024490423689
20,3.5235235235235236,0.6800389247389113
20,3.5335335335335336,0.6354871662805021
20,3.5435435435435436,0.5900820057286534
20,3.5535535535535536,0.5473301733899689
20,3.5635635635635636,0.4886893583374231
20,3.5735735735735736,0.4423023823151894
20,3.5835835835835836,0.39330848397637186
20,3.5935935935935936,0.34564417714020107
20,3.6036036036036037,0.290075478270911
20,3.6136136136136137,0.2443781403850957
20,3.6236236236236237,0.2039891098767305
20,3.6336336336336337,0.16494185472914613
20,3.6436436436436437,0.12938184286920013
20,3.6536536536536537,0.09908040153040908
20,3.6636636636636637,0.07846283808617545
20,3.6736736736736737,0.04997021551233944
20,3.6836836836836837,0.03531653034336858
20,3.6936936936936937,0.018611787833792717
20,3.7037037037037037,0.009132684722938317
20,3.7137137137137137,0.003583231734544351
20,3.7237237237237237,0.001732603532213614
20,3.7337337337337337,0.0005588068241177273
20,3.7437437437437437,0.0007352887946070166
20,3.7537537537537538,3.4353798516687046e-05
20,3.7637637637637638,-0.0011805137607944498
20,3.7737737737737738,-0.002392116070953899
20,3.7837837837837838,-0.0004982073303991807
20,3.793793793793794,-0.01515853507276525
20,3.803803803803804,-0.01273735488755618
20,3.813813813813814,-0.03691714601189538
20,3.823823823823824,-0.044092340599297536
20,3.833833833833834,-0.05994669605573194
20,3.843843843843844,-0.09564534300080274
20,3.853853853853854,-0.12565420155477114
20,3.863863863863864,-0.15420331333061538
20,3.873873873873874,-0.19326321347461856
20,3.883883883883884,-0.2311589263553457
20,3.893893893893894,-0.2781910966767626
20,3.903903903903904,-0.3243744052438337
20,3.913913913913914,-0.3795317238260402
20,3.923923923923924,-0.43104117813522896
20,3.933933933933934,-0.48218217304805466
20,3.943943943943944,-0.5309257624955454
20,3.953953953953954,-0.5754190496518964
20,3.963963963963964,-0.6227849634725683
20,3.973973973973974,-0.6701403321995568
20,3.983983983983984,-0.6951609082702063
20,3.993993993993994,-0.731961284335945
20,4.004004004004004,-0.7542515782917133
20,4.014014014014014,-0.7700077096229961
20,4.024024024024024,-0.7789828364602708
20,4.034034034034034,-0.7818585487371233
20,4.044044044044044,-0.7661810345564445
20,4.054054054054054,-0.7480359861381539
20,4.064064064064064,-0.7164679430021612
20,4.074074074074074,-0.6854260866019061
20,4.084084084084084,-0.6398685973678296
20,4.094094094094094,-0.5795075210634902
20,4.104104104104104,-0.5161969345012449
20,4.114114114114114,-0.4484871365861357
20,4.124124124124124,-0.36649587374431175
20,4.134134134134134,-0.30062463796569167
20,4.1441441441441444,-0.1992040653175537
20,4.1541541541541545,-0.10533169395003018
20,4.1641641641641645,-0.022773667538423366
20,4.1741741741741745,0.06553488796615979
20,4.1841841841841845,0.16467619434531838
20,4.1941941941941945,0.24149125045907063
20,4.2042042042042045,0.3221359665484567
20,4.2142142142142145,0.4112003733115548
20,4.2242242242242245,0.48896536387999984
20,4.2342342342342345,0.5427184529909812
20,4.2442442442442445,0.609037901296806
20,4.2542542542542545,0.6557807822173312
20,4.2642642642642645,0.70425723012149
20,4.2742742742742745,0.7243877806174835
20,4.2842842842842845,0.7617197771534758
20,4.2942942942942945,0.7707238241167396
20,4.3043043043043046,0.779850446399889
20,4.314314314314315,0.7868591038767379
20,4.324324324324325,0.769935508057024
20,4.334334334334335,0.7440534691211488
20,4.344344344344345,0.720057054247696
20,4.354354354354355,0.6834768944547727
20,4.364364364364365,0.6468074940935942
20,4.374374374374375,0.6014046093053899
20,4.384384384384385,0.5540884613133312
20,4.394394394394395,0.5061210033516463
20,4.404404404404405,0.4536110244175511
20,4.414414414414415,0.402071975361222
20,4.424424424424425,0.34610131189032506
20,4.434434434434435,0.3122813432348177
20,4.444444444444445,0.25430873136998255
20,4.454454454454455,0.21531417574251085
20,4.464464464464465,0.1733026447574873
20,4.474474474474475,0.13584032383338468
20,4.484484484484485,0.10594514385140849
20,4.494494494494495,0.08232960653320848
20,4.504504504504505,0.05748209585427178
20,4.514514514514515,0.03305553750422075
20,4.524524524524525,0.02242644374073458
20,4.534534534534535,0.011043301864861351
20,4.544544544544545,0.015590049626237964
20,4.554554554554555,0.010835788244007351
20,4.564564564564565,0.0045416898880123475
20,4.574574574574575,0.002576891569519783
20,4.584584584584585,-0.002496306782556823
20,4.594594594594595,0.005992759083015872
20,4.604604604604605,0.002553646595450826
20,4.614614614614615,-0.007025262221063739
20,4.624624624624625,-0.007107565405735719
20,4.634634634634635,-0.008633921933682271
20,4.644644644644645,-0.026814471028304043
20,4.654654654654655,-0.04390200254308562
20,4.664664664664665,-0.05887745518890845
20,4.674674674674675,-0.09028126285814991
20,4.684684684684685,-0.10747092722699132
20,4.694694694694695,-0.15094561029492506
20,4.704704704704705,-0.1807376833740429
20,4.714714714714715,-0.2336262028362418
20,4.724724724724725,-0.26999208395439195
20,4.734734734734735,-0.31775908925050894
20,4.744744744744745,-0.36497676210544616
20,4.754754754754755,-0.4107581170353247
20,4.764764764764765,-0.4716250654016268
20,4.774774774774775,-0.5191657054380389
20,4.784784784784785,-0.5710024041289312
20,4.794794794794795,-0.6116978073520778
20,4.804804804804805,-0.6548740177454491
20,4.814814814814815,-0.6992061452607666
20,4.824824824824825,-0.7206765358065521
20,4.834834834834835,-0.7484512355570309
20,4.844844844844845,-0.7640916953359761
20,4.854854854854855,-0.7744173825672014
20,4.864864864864865,-0.7732418845298313
20,4.874874874874875,-0.7763613349962198
20,4.884884884884885,-0.755343022557532
20,4.894894894894895,-0.7313720123057197
20,4.904904904904905,-0.6885035020683464
20,4.914914914914915,-0.6520633714527063
20,4.924924924924925,-0.5921381261245058
20,4.934934934934935,-0.5295083996519736
20,4.944944944944945,-0.4654184072962721
20,4.954954954954955,-0.3815667522069489
20,4.964964964964965,-0.31070061229225
20,4.974974974974975,-0.22557874759674992
20,4.984984984984985,-0.134274626939783
20,4.994994994994995,-0.0536671062877644
20,5.005005005005005,0.043721611152818494
20,5.015015015015015,0.1329941711714157
20,5.025025025025025,0.22049768879194492
20,5.035035035035035,0.3007814931549854
20,5.045045045045045,0.3889538946520199
20,5.055055055055055,0.4671676493608389
20,5.065065065065065,0.5392242871470764
20,5.075075075075075,0.5939872815879365
20,5.085085085085085,0.6453554344483097
20,5.095095095095095,0.6831534472053443
20,5.105105105105105,0.7280014361319049
20,5.115115115115115,0.7530485919874235
20,5.125125125125125,0.7704904225495739
20,5.135135135135135,0.7757934991816805
20,5.145145145145145,0.7738699088014969
20,5.155155155155155,0.7673717443210585
20,5.165165165165165,0.7584166812089022
20,5.175175175175175,0.7213622270619583
20,5.185185185185185,0.6946751138057143
20,5.195195195195195,0.6521030956707755
20,5.205205205205205,0.6100818813664565
20,5.215215215215215,0.5684932052479676
20,5.225225225225225,0.5289920258104102
20,5.235235235235235,0.47365120040570896
20,5.245245245245245,0.41801749056962634
20,5.255255255255255,0.3692813640311989
20,5.265265265265265,0.3225029335982563
20,5.275275275275275,0.2708376122129873
20,5.285285285285285,0.2313725022413634
20,5.295295295295295,0.17778329541882074
20,5.305305305305305,0.15007800698917
20,5.315315315315315,0.11560144862470667
20,5.325325325325325,0.08836043002608214
20,5.335335335335335,0.06349454652611454
20,5.345345345345345,0.03976987167469033
20,5.355355355355355,0.03420015646578671
20,5.365365365365365,0.0208301168336414
20,5.375375375375375,0.00816072700672088
20,5.385385385385385,-0.00019942523090211387
20,5.395395395395395,-0.0010001487615979637
20,5.405405405405405,0.003003697401526409
20,5.415415415415415,0.002102736605187008
20,5.425425425425425,-0.008556212175962632
20,5.435435435435435,-0.003765481129072933
20,5.445445445445445,-0.0058692591699827
20,5.455455455455455,-0.00836468664696499
20,5.465465465465465,-0.01332336058112336
20,5.475475475475475,-0.01866022261473587
20,5.485485485485485,-0.04026355980476548
20,5.495495495495495,-0.059878960626391455
20,5.505505505505505,-0.08137771287658606
20,5.515515515515515,-0.11666239137401604
20,5.525525525525525,-0.1409436520147361
20,5.535535535535535,-0.1737280559291521
20,5.545545545545545,-0.21532921570658975
20,5.555555555555555,-0.2571371942398837
20,5.565565565565565,-0.3187796557827969
20,5.575575575575575,-0.36027081008670775
20,5.585585585585585,-0.40109515417308433
20,5.595595595595595,-0.4640182358525329
20,5.605605605605605,-0.5028190239891963
20,5.615615615615615,-0.546507091169567
20,5.625625625625625,-0.5928041464778874
20,5.635635635635635,-0.6427792688221452
20,5.645645645645645,-0.6941957924470267
20,5.655655655655655,-0.7142408252243541
20,5.665665665665665,-0.7475307607543544
20,5.675675675675675,-0.7671850244579971
20,5.685685685685685,-0.7751453549712016
20,5.6956956956956954,-0.77394206109661
20,5.7057057057057055,-0.7699330615163797
20,5.7157157157157155,-0.761219190421771
20,5.7257257257257255,-0.7421338984596002
20,5.7357357357357355,-0.6955987469243827
20,5.7457457457457455,-0.6548795254134505
20,5.7557557557557555,-0.6143090865263442
20,5.7657657657657655,-0.5521143979240001
20,5.7757757757757755,-0.47942335158994376
20,5.7857857857857855,-0.40256209664683823
20,5.7957957957957955,-0.32498870172791255
20,5.8058058058058055,-0.24822781852420336
20,5.8158158158158155,-0.15052704667767047
20,5.8258258258258255,-0.0651977831667827
20,5.8358358358358355,0.018849716850397193
20,5.8458458458458455,0.10814054444272528
20,5.8558558558558556,0.21419639735234952
20,5.865865865865866,0.29124129450851294
20,5.875875875875876,0.3692921697319788
20,5.885885885885886,0.4436683269509198
20,5.895895895895896,0.5140234111124132
20,5.905905905905906,0.5795098518049943
20,5.915915915915916,0.6348575381890885
20,5.925925925925926,0.6811290745223627
20,5.935935935935936,0.7166081504375803
20,5.945945945945946,0.7456140249281709
20,5.955955955955956,0.7654236532759958
20,5.965965965965966,0.7678041952093905
20,5.975975975975976,0.7719637098188259
20,5.985985985985986,0.7749471373710073
20,5.995995995995996,0.7600059701753942
20,6.006006006006006,0.7334913574902086
20,6.016016016016016,0.6937653081471671
20,6.026026026026026,0.6714415804992648
20,6.036036036036036,0.623261697235333
20,6.046046046046046,0.5761193158843342
20,6.056056056056056,0.5347560515594036
20,6.066066066066066,0.4833841446174806
20,6.076076076076076,0.42005703143507844
20,6.086086086086086,0.3781710397166099
20,6.096096096096096,0.33605304577552564
20,6.106106106106106,0.28356028126134875
20,6.116116116116116,0.23401880908738154
20,6.126126126126126,0.20013355274022954
20,6.136136136136136,0.1491126296137321
20,6.146146146146146,0.12115929582783935
20,6.156156156156156,0.09839299971586003
20,6.166166166166166,0.05939797601400248
20,6.176176176176176,0.06275527101497712
20,6.186186186186186,0.03451420278826343
20,6.196196196196196,0.021929798167121574
20,6.206206206206206,0.007366471992989985
20,6.216216216216216,0.0038420210264793423
20,6.226226226226226,0.001255990393999767
20,6.236236236236236,0.0013931437201223954
20,6.246246246246246,0.0008403486711121452
20,6.256256256256256,0.009116357914141636
20,6.266266266266266,0.000979385111653637
20,6.276276276276276,0.0006087854742813361
20,6.286286286286286,-0.008342072222095504
20,6.296296296296296,-0.007120978475803837
20,6.306306306306306,-0.019555574602084576
20,6.316316316316316,-0.026723885086980703
20,6.326326326326326,-0.05529147873861734
20,6.336336336336336,-0.07680569830708218
20,6.346346346346346,-0.08652187641850059
20,6.356356356356356,-0.1394926751792801
20,6.366366366366366,-0.16453874075505504
20,6.376376376376376,-0.2076867934957902
20,6.386386386386386,-0.2509045496768016
20,6.396396396396396,-0.2918235707587532
20,6.406406406406406,-0.34056256932903917
20,6.416416416416417,-0.39303017427884146
20,6.426426426426427,-0.44298704576350584
20,6.436436436436437,-0.49076663343265975
20,6.446446446446447,-0.5437225672762374
20,6.456456456456457,-0.5917539672622164
20,6.466466466466467,-0.627739054081925
20,6.476476476476477,-0.6789671140080247
20,6.486486486486487,-0.7125032411874936
20,6.496496496496497,-0.743516852313737
20,6.506506506506507,-0.7629740738675376
20,6.516516516516517,-0.774588280349857
20,6.526526526526527,-0.7788970201652143
20,6.536536536536537,-0.7834409921539375
20,6.546546546546547,-0.7504306455218243
20,6.556556556556557,-0.7364560309458726
20,6.566566566566567,-0.710171404054299
20,6.576576576576577,-0.6764134754166665
20,6.586586586586587,-0.6226625937264189
20,6.596596596596597,-0.5648297765184067
20,6.606606606606607,-0.49687180380104834
20,6.616616616616617,-0.4208827127920149
20,6.626626626626627,-0.3551134285003958
20,6.636636636636637,-0.26983566218618754
20,6.646646646646647,-0.1848332024363115
20,6.656656656656657,-0.09320223421517969
20,6.666666666666667,-0.004040175455410711
20,6.676676676676677,0.09531235949970693
20,6.686686686686687,0.1792798189605368
20,6.696696696696697,0.2658984370614195
20,6.706706706706707,0.3500090414193818
20,6.716716716716717,0.4249850994900544
20,6.726726726726727,0.4931802751316179
20,6.736736736736737,0.5668869470750872
20,6.746746746746747,0.6187521993743123
20,6.756756756756757,0.6805348575968163
20,6.766766766766767,0.6998933831886447
20,6.776776776776777,0.7449592472556431
20,6.786786786786787,0.757813795406731
20,6.796796796796797,0.7831262765746763
20,6.806806806806807,0.7764021358767652
20,6.816816816816817,0.7723732063518925
20,6.826826826826827,0.7620446990346315
20,6.836836836836837,0.7318238923163429
20,6.846846846846847,0.7076579656650196
20,6.856856856856857,0.6765516451637066
20,6.866866866866867,0.6376616424398942
20,6.876876876876877,0.5989119456219961
20,6.886886886886887,0.5389853810881923
20,6.896896896896897,0.4944646321666123
20,6.906906906906907,0.4503658112106026
20,6.916916916916917,0.39067246782433496
20,6.926926926926927,0.3435835077962233
20,6.936936936936937,0.2943893244774885
20,6.946946946946947,0.24511032034573732
20,6.956956956956957,0.21147581469706694
20,6.966966966966967,0.1730586035109538
20,6.976976976976977,0.1347768159379476
20,6.986986986986987,0.10155989371222501
20,6.996996996996997,0.07533972857121499
20,7.007007007007007,0.0648770983803074
20,7.017017017017017,0.028782186019457277
20,7.027027027027027,0.010053122474216612
20,7.037037037037037,0.014353630537230024
20,7.047047047047047,0.009352909696120742
20,7.057057057057057,0.006724673201933782
20,7.067067067067067,-0.004496955186319235
20,7.077077077077077,-0.0011348959602537187
20,7.087087087087087,0.0051528765278060626
20,7.097097097097097,0.00038943457310925073
20,7.107107107107107,0.004490635693005993
20,7.117117117117117,-0.005906503313968352
20,7.127127127127127,-0.00751293307860729
20,7.137137137137137,-0.022346867606816284
20,7.147147147147147,-0.024747808229205207
20,7.157157157157157,-0.04329132655880805
20,7.167167167167167,-0.07246021068874002
20,7.177177177177177,-0.0997566574613599
20,7.187187187187187,-0.1220987386028766
20,7.197197197197197,-0.1634673773866433
20,7.207207207207207,-0.19440503527699662
20,7.217217217217217,-0.2447679897935022
20,7.227227227227227,-0.2854176334174212
20,7.237237237237237,-0.3325318405274752
20,7.247247247247247,-0.37522358067267747
20,7.257257257257257,-0.4419973627776152
20,7.267267267267267,-0.48308995609998484
20,7.277277277277277,-0.5354785977709452
20,7.287287287287287,-0.5780667682300956
20,7.297297297297297,-0.6273027037722594
20,7.307307307307307,-0.662206307644773
20,7.317317317317317,-0.6988550071728753
20,7.327327327327327,-0.7337574296723842
20,7.337337337337337,-0.7607606656701188
20,7.347347347347347,-0.7679779886881798
20,7.357357357357357,-0.7826354152217486
20,7.367367367367367,-0.7790830571515406
20,7.377377377377377,-0.7615981492036973
20,7.387387387387387,-0.7537223924509331
20,7.397397397397397,-0.7261688008867642
20,7.407407407407407,-0.676391056464787
20,7.4174174174174174,-0.6298243130924488
20,7.4274274274274275,-0.5711558740556125
20,7.4374374374374375,-0.5257482070191312
20,7.4474474474474475,-0.4483376244508244
20,7.4574574574574575,-0.36193234558514553
20,7.4674674674674675,-0.2796762521393456
20,7.4774774774774775,-0.19795039538478193
20,7.4874874874874875,-0.10992674766994169
20,7.4974974974974975,-0.028967422931865345
20,7.5075075075075075,0.06785533774696953
20,7.5175175175175175,0.1638289989326502
20,7.5275275275275275,0.23575402015693678
20,7.5375375375375375,0.32994213482990176
20,7.5475475475475475,0.4125155971240195
20,7.5575575575575575,0.48097437748705607
20,7.5675675675675675,0.5455058130036268
20,7.5775775775775776,0.6157605902738421
20,7.587587587587588,0.656963485565604
20,7.597597597597598,0.694712832150823
20,7.607607607607608,0.7316789853372156
20,7.617617617617618,0.768411352412608
20,7.627627627627628,0.7839745968496571
20,7.637637637637638,0.779122690053983
20,7.647647647647648,0.7725662505773188
20,7.657657657657658,0.7613270739638387
20,7.667667667667668,0.7385107910642796
20,7.677677677677678,0.7155775610324125
20,7.687687687687688,0.6880336901318185
20,7.697697697697698,0.6518735794164732
20,7.707707707707708,0.6055849850370705
20,7.717717717717718,0.5543713686261574
20,7.727727727727728,0.5095294163319973
20,7.737737737737738,0.4535878287272691
20,7.747747747747748,0.40229446117033385
20,7.757757757757758,0.3550472788528618
20,7.767767767767768,0.30454521587265865
20,7.777777777777778,0.26371454174893716
20,7.787787787787788,0.22020802214297686
20,7.797797797797798,0.1812477707462364
20,7.807807807807808,0.13542906959038317
20,7.817817817817818,0.10966320994043163
20,7.827827827827828,0.08574879066619658
20,7.837837837837838,0.06076253352783918
20,7.847847847847848,0.03754508777423006
20,7.857857857857858,0.03226275291606343
20,7.867867867867868,0.01177975034419372
20,7.877877877877878,0.0048924913919103745
20,7.887887887887888,0.006984028317757649
20,7.897897897897898,0.0006935071108979657
20,7.907907907907908,7.9236700438833e-05
20,7.917917917917918,0.004919414442574185
20,7.927927927927928,0.001194657365992184
20,7.937937937937938,-0.0008306800371715918
20,7.947947947947948,-0.0055371653160733135
20,7.957957957957958,-0.002848647855722852
20,7.967967967967968,-0.020307030621712414
20,7.977977977977978,-0.03119044990268698
20,7.987987987987988,-0.03829473317246002
20,7.997997997997998,-0.06480275018888941
20,8.008008008008009,-0.08526912646621315
20,8.018018018018019,-0.11480660878845543
20,8.028028028028029,-0.15022495666004188
20,8.038038038038039,-0.18808515932080963
20,8.048048048048049,-0.22155159453834933
20,8.058058058058059,-0.26675239791884126
20,8.068068068068069,-0.3115942047220131
20,8.078078078078079,-0.367289970665361
20,8.088088088088089,-0.41485437820892695
20,8.098098098098099,-0.4673477304286437
20,8.108108108108109,-0.5229870947363716
20,8.118118118118119,-0.5629043212562533
20,8.128128128128129,-0.6129590397035161
20,8.138138138138139,-0.6582319838564716
20,8.148148148148149,-0.684441070842826
20,8.158158158158159,-0.728061001806846
20,8.168168168168169,-0.7477625037780488
20,8.178178178178179,-0.7687465214934093
20,8.188188188188189,-0.7898017611738307
20,8.198198198198199,-0.7795351357228575
20,8.208208208208209,-0.7763478544049294
20,8.218218218218219,-0.7559729616029299
20,8.228228228228229,-0.7308216684528566
20,8.238238238238239,-0.6918450238502468
20,8.248248248248249,-0.6481603978277423
20,8.258258258258259,-0.5987096869062932
20,8.268268268268269,-0.5313546003857872
20,8.278278278278279,-0.47207080281441494
20,8.288288288288289,-0.388336028289987
20,8.298298298298299,-0.3136110760703332
20,8.308308308308309,-0.22277086975004667
20,8.318318318318319,-0.1386897107267408
20,8.328328328328329,-0.04334553360541308
20,8.338338338338339,0.04573493215619306
20,8.348348348348349,0.14334205503428396
20,8.358358358358359,0.2201748703669503
20,8.368368368368369,0.30727449985549093
20,8.378378378378379,0.38917485152738834
20,8.388388388388389,0.4570686709070138
20,8.398398398398399,0.5217028298294017
20,8.408408408408409,0.5951437559558552
20,8.418418418418419,0.6421733944821855
20,8.428428428428429,0.6976815683772133
20,8.438438438438439,0.7372388095311795
20,8.448448448448449,0.7579561896202462
20,8.458458458458459,0.7658245729461384
20,8.468468468468469,0.7803758312297779
20,8.478478478478479,0.7661544736217505
20,8.488488488488489,0.7731862561887128
20,8.498498498498499,0.7513793156317587
20,8.508508508508509,0.7343020078021685
20,8.518518518518519,0.6806240079782295
20,8.528528528528529,0.6562207736317093
20,8.538538538538539,0.6091189231399106
20,8.548548548548549,0.5709928276838999
20,8.558558558558559,0.5213757422474002
20,8.568568568568569,0.4695950513149833
20,8.578578578578579,0.42237817801583366
20,8.588588588588589,0.3673179026654991
20,8.598598598598599,0.3275711904694861
20,8.608608608608609,0.2666353545518368
20,8.618618618618619,0.22470337852720124
20,8.62862862862863,0.1936822243446958
20,8.63863863863864,0.14586641405032366
20,8.64864864864865,0.11283922104212823
20,8.65865865865866,0.08780959871814446
20,8.66866866866867,0.05967626516467076
20,8.67867867867868,0.05046425102781764
20,8.68868868868869,0.02660140608917394
20,8.6986986986987,0.026664554395062174
20,8.70870870870871,0.007563496564017963
20,8.71871871871872,-0.00033397724912570016
20,8.72872872872873,-0.0016565760501523908
20,8.73873873873874,0.003267540963920456
20,8.74874874874875,0.0030359625025424054
20,8.75875875875876,0.0010218742762374954
20,8.76876876876877,0.0003153200710091365
20,8.77877877877878,-0.005520854781230185
20,8.78878878878879,-0.002551084574980461
20,8.7987987987988,-0.01720640320652951
20,8.80880880880881,-0.025507878668639662
20,8.81881881881882,-0.03451915948242899
20,8.82882882882883,-0.05479621487868256
20,8.83883883883884,-0.07606815432999227
20,8.84884884884885,-0.10300052799784835
20,8.85885885885886,-0.13867225445431203
20,8.86886886886887,-0.1745123517186853
20,8.87887887887888,-0.21448224929229187
20,8.88888888888889,-0.2678529104962697
20,8.8988988988989,-0.3167044690321524
20,8.90890890890891,-0.35535685126772776
20,8.91891891891892,-0.4019837739071905
20,8.92892892892893,-0.45606483845503204
20,8.93893893893894,-0.5052164262528096
20,8.94894894894895,-0.5525530872646466
20,8.95895895895896,-0.6015915857421135
20,8.96896896896897,-0.6541663775541392
20,8.97897897897898,-0.6804493907052833
20,8.98898898898899,-0.7228672494827545
20,8.998998998999,-0.7428496957142255
20,9.00900900900901,-0.761592210429072
20,9.01901901901902,-0.7842961124074284
20,9.02902902902903,-0.7808296482701572
20,9.03903903903904,-0.7715642999738772
20,9.04904904904905,-0.7515225950758476
20,9.05905905905906,-0.7362286172820265
20,9.06906906906907,-0.6966074644959543
20,9.07907907907908,-0.6597894453292491
20,9.08908908908909,-0.5982398117827115
20,9.0990990990991,-0.5447190226263006
20,9.10910910910911,-0.47945344257243155
20,9.11911911911912,-0.4139769190000318
20,9.12912912912913,-0.3332261501207127
20,9.13913913913914,-0.24444191148245425
20,9.14914914914915,-0.15285843813487884
20,9.15915915915916,-0.06733715309085513
20,9.16916916916917,0.019856663780646447
20,9.17917917917918,0.11361864560056052
20,9.18918918918919,0.2029854340240885
20,9.1991991991992,0.28326487771532183
20,9.20920920920921,0.3621229855829415
20,9.21921921921922,0.4438836946373335
20,9.22922922922923,0.5263764482407642
20,9.23923923923924,0.5834319754451531
20,9.24924924924925,0.6374983412499968
20,9.25925925925926,0.6790785738381434
20,9.26926926926927,0.7297726835723334
20,9.27927927927928,0.7464745736219164
20,9.28928928928929,0.7657194881067607
20,9.2992992992993,0.7850250066970467
20,9.30930930930931,0.7826400385940171
20,9.31931931931932,0.7707437079028263
20,9.32932932932933,0.7537413234895415
20,9.33933933933934,0.7389073118230155
20,9.34934934934935,0.6979625352783626
20,9.35935935935936,0.6590663727365327
20,9.36936936936937,0.6207917305114588
20,9.37937937937938,0.5844961662052316
20,9.38938938938939,0.5353421155912924
20,9.3993993993994,0.48694389194985266
20,9.40940940940941,0.4350489665245599
20,9.41941941941942,0.37957526216389204
20,9.42942942942943,0.33740897075499887
20,9.43943943943944,0.287279359193469
20,9.44944944944945,0.24347962598876707
20,9.45945945945946,0.18903985561247127
20,9.46946946946947,0.15487900541627758
20,9.47947947947948,0.11855521639705628
20,9.48948948948949,0.0882015337791319
20,9.4994994994995,0.0770547660586514
20,9.50950950950951,0.050988625989636716
20,9.51951951951952,0.0366559827195827
20,9.52952952952953,0.024062302043850948
20,9.53953953953954,0.0038741983726685927
20,9.54954954954955,0.006442779157877515
20,9.55955955955956,0.003990850489869349
20,9.56956956956957,0.007451388782479107
20,9.57957957957958,-0.00034242363966463475
20,9.58958958958959,9.365442224737054e-05
20,9.5995995995996,-0.005848217851791696
20,9.60960960960961,-0.006307466094041478
20,9.61961961961962,-0.009657121670866015
20,9.62962962962963,-0.015499713425288478
20,9.63963963963964,-0.021972262401188557
20,9.64964964964965,-0.04108498695720709
20,9.65965965965966,-0.04541460702845208
20,9.66966966966967,-0.07512631458509456
20,9.67967967967968,-0.10263908430874061
20,9.68968968968969,-0.13331625530331184
20,9.6996996996997,-0.16287693212864227
20,9.70970970970971,-0.21215923561988032
20,9.71971971971972,-0.2516154219713336
20,9.72972972972973,-0.2790409838517778
20,9.73973973973974,-0.33475018714214116
20,9.74974974974975,-0.3899548738674141
20,9.75975975975976,-0.44246916084359966
20,9.76976976976977,-0.496507620428767
20,9.77977977977978,-0.5366898137447637
20,9.78978978978979,-0.5887246540484551
20,9.7997997997998,-0.6369739643432608
20,9.80980980980981,-0.6736906632512383
20,9.81981981981982,-0.7150375211687124
20,9.82982982982983,-0.7406753516079585
20,9.83983983983984,-0.7597225324577754
20,9.84984984984985,-0.7758394466039197
20,9.85985985985986,-0.7828021233598431
20,9.86986986986987,-0.7740875712361215
20,9.87987987987988,-0.7690312411206786
20,9.88988988988989,-0.7425507006606427
20,9.8998998998999,-0.715779369446072
20,9.90990990990991,-0.6665918090214656
20,9.91991991991992,-0.6187672905918494
20,9.92992992992993,-0.5722849452048974
20,9.93993993993994,-0.4941070467165717
20,9.94994994994995,-0.4312180100445348
20,9.95995995995996,-0.3446926489013943
20,9.96996996996997,-0.25966641021681675
20,9.97997997997998,-0.18280125525456148
20,9.98998998998999,-0.09468181729101921
20,10.0,0.003415431283215989
