Subject_ID,Time,PPG
11,0.0,0.005848830420969734
11,0.01001001001001001,0.07986801952466488
11,0.02002002002002002,0.1835413491466466
11,0.03003003003003003,0.2677306724266596
11,0.04004004004004004,0.3502603496680866
11,0.050050050050050046,0.4251535345939722
11,0.06006006006006006,0.5117627904631653
11,0.07007007007007007,0.555678654783682
11,0.08008008008008008,0.6217851224663716
11,0.09009009009009009,0.6631967061248871
11,0.10010010010010009,0.7131296049805027
11,0.11011011011011011,0.7441762359545816
11,0.12012012012012012,0.7559606360331238
11,0.13013013013013014,0.7781950596107245
11,0.14014014014014015,0.7772774853512825
11,0.15015015015015015,0.7718005702307646
11,0.16016016016016016,0.758058182926898
11,0.17017017017017017,0.7476630249494863
11,0.18018018018018017,0.7059203491676864
11,0.19019019019019018,0.6713242249914007
11,0.20020020020020018,0.639028424830025
11,0.21021021021021022,0.5871465196232183
11,0.22022022022022023,0.5452018107032479
11,0.23023023023023023,0.49063777507551865
11,0.24024024024024024,0.43456148074934736
11,0.2502502502502503,0.3914026399246072
11,0.2602602602602603,0.3376590887749479
11,0.2702702702702703,0.2979334871682722
11,0.2802802802802803,0.24741182889571472
11,0.2902902902902903,0.21652608788758776
11,0.3003003003003003,0.1636122673982703
11,0.3103103103103103,0.13269017309654899
11,0.3203203203203203,0.10079077181373385
11,0.3303303303303303,0.07051915956210086
11,0.34034034034034033,0.0462637101468096
11,0.35035035035035034,0.03595993737968982
11,0.36036036036036034,0.018307065180554628
11,0.37037037037037035,0.019284438381574925
11,0.38038038038038036,0.007419000654632835
11,0.39039039039039036,-0.005584182460462956
11,0.40040040040040037,0.00308504711552031
11,0.41041041041041043,0.00012840697617214997
11,0.42042042042042044,-0.0002636524742682791
11,0.43043043043043044,-0.0016833263376953404
11,0.44044044044044045,-0.0075642522418744446
11,0.45045045045045046,-0.0033863481493851023
11,0.46046046046046046,-0.00925283150815349
11,0.47047047047047047,-0.026055271645470987
11,0.4804804804804805,-0.02731944763653985
11,0.4904904904904905,-0.04371076123646678
11,0.5005005005005005,-0.06950427274036451
11,0.5105105105105106,-0.09121158281415671
11,0.5205205205205206,-0.12634500518922648
11,0.5305305305305306,-0.16304332905715352
11,0.5405405405405406,-0.19405699584259348
11,0.5505505505505506,-0.23283285757324118
11,0.5605605605605606,-0.28718698978874585
11,0.5705705705705706,-0.338509560408246
11,0.5805805805805806,-0.3741621719836802
11,0.5905905905905906,-0.4358117216269878
11,0.6006006006006006,-0.46834116768521594
11,0.6106106106106106,-0.5322681435591408
11,0.6206206206206206,-0.5813541317126639
11,0.6306306306306306,-0.6326605520577271
11,0.6406406406406406,-0.6599665716457663
11,0.6506506506506506,-0.7127204909231044
11,0.6606606606606606,-0.7220456649961364
11,0.6706706706706707,-0.7596956713187315
11,0.6806806806806807,-0.7735891010596514
11,0.6906906906906907,-0.7794565091147263
11,0.7007007007007007,-0.7771178888694343
11,0.7107107107107107,-0.7678253388973982
11,0.7207207207207207,-0.7515704645033062
11,0.7307307307307307,-0.7239466393008407
11,0.7407407407407407,-0.6766907767412284
11,0.7507507507507507,-0.6279547277851717
11,0.7607607607607607,-0.574627336032792
11,0.7707707707707707,-0.5197756236764935
11,0.7807807807807807,-0.4470225972215094
11,0.7907907907907907,-0.36540287405691246
11,0.8008008008008007,-0.2915656185714614
11,0.8108108108108109,-0.20324989067859026
11,0.8208208208208209,-0.1064699071394703
11,0.8308308308308309,-0.01848099941153053
11,0.8408408408408409,0.06679340759530711
11,0.8508508508508509,0.15632333861621492
11,0.8608608608608609,0.2443996509129066
11,0.8708708708708709,0.3320931415400796
11,0.8808808808808809,0.40506501899515174
11,0.8908908908908909,0.47625765283231014
11,0.9009009009009009,0.5481599421062875
11,0.9109109109109109,0.5971946654704355
11,0.9209209209209209,0.6567750559562681
11,0.9309309309309309,0.6897353482553483
11,0.9409409409409409,0.7314914583607092
11,0.950950950950951,0.7574057204788783
11,0.960960960960961,0.7723025640548169
11,0.970970970970971,0.7792577297097758
11,0.980980980980981,0.7819401425518487
11,0.990990990990991,0.7678214362474389
11,1.001001001001001,0.7490904864148317
11,1.011011011011011,0.7151739216040808
11,1.021021021021021,0.6808031474683569
11,1.031031031031031,0.6506568788133681
11,1.0410410410410411,0.605384756288442
11,1.0510510510510511,0.5590156562699696
11,1.0610610610610611,0.4949792098292733
11,1.0710710710710711,0.46393375619324045
11,1.0810810810810811,0.4014706942838054
11,1.0910910910910911,0.35068485076031647
11,1.1011011011011012,0.3090182257492724
11,1.1111111111111112,0.26285564659364374
11,1.1211211211211212,0.21317353067574937
11,1.1311311311311312,0.16930924056144916
11,1.1411411411411412,0.13732680818065626
11,1.1511511511511512,0.10173888986070119
11,1.1611611611611612,0.07680347696762772
11,1.1711711711711712,0.05718146321742786
11,1.1811811811811812,0.038388092863858324
11,1.1911911911911912,0.01988785095990151
11,1.2012012012012012,0.009933085925059152
11,1.2112112112112112,0.007373256845814772
11,1.2212212212212212,-0.0020285011844509366
11,1.2312312312312312,-0.0031507807368084994
11,1.2412412412412412,0.008999992965989457
11,1.2512512512512513,-0.0053759436103088245
11,1.2612612612612613,-0.0026881110152958644
11,1.2712712712712713,0.0056778498962916195
11,1.2812812812812813,-0.01592496541043085
11,1.2912912912912913,-0.010092507417093114
11,1.3013013013013013,-0.009006908233065733
11,1.3113113113113113,-0.033991342305186106
11,1.3213213213213213,-0.04284566653680331
11,1.3313313313313313,-0.059761698742564484
11,1.3413413413413413,-0.07756453772861346
11,1.3513513513513513,-0.1182121812325483
11,1.3613613613613613,-0.1474941739086193
11,1.3713713713713713,-0.18760479336912167
11,1.3813813813813813,-0.2278949600386621
11,1.3913913913913913,-0.26984703609176786
11,1.4014014014014013,-0.31216878773657175
11,1.4114114114114114,-0.3710087231961203
11,1.4214214214214214,-0.4153766736257759
11,1.4314314314314314,-0.475152472038845
11,1.4414414414414414,-0.5170501282069445
11,1.4514514514514514,-0.5620826131209234
11,1.4614614614614614,-0.611591611237738
11,1.4714714714714714,-0.6563887373246181
11,1.4814814814814814,-0.6979539728591964
11,1.4914914914914914,-0.7278282150353471
11,1.5015015015015014,-0.7444407808165293
11,1.5115115115115114,-0.766302929392918
11,1.5215215215215214,-0.7815510384962133
11,1.5315315315315314,-0.7768294554783434
11,1.5415415415415414,-0.7755550943205423
11,1.5515515515515514,-0.7598987941442972
11,1.5615615615615615,-0.7295769396998625
11,1.5715715715715715,-0.7015219778680523
11,1.5815815815815815,-0.6539611820705877
11,1.5915915915915915,-0.5881908756917215
11,1.6016016016016015,-0.5278183052444856
11,1.6116116116116117,-0.4689274355820525
11,1.6216216216216217,-0.38871425141305327
11,1.6316316316316317,-0.3057446307394392
11,1.6416416416416417,-0.22424319001461865
11,1.6516516516516517,-0.13586484380463498
11,1.6616616616616617,-0.039025852177587556
11,1.6716716716716717,0.0381155277704762
11,1.6816816816816818,0.13297969782428906
11,1.6916916916916918,0.2272798073933026
11,1.7017017017017018,0.30578946453765316
11,1.7117117117117118,0.3823360543541295
11,1.7217217217217218,0.467225597512893
11,1.7317317317317318,0.5260762003399242
11,1.7417417417417418,0.5986726607203423
11,1.7517517517517518,0.6464338446029753
11,1.7617617617617618,0.6845419960228403
11,1.7717717717717718,0.7279389230029328
11,1.7817817817817818,0.7562073369186673
11,1.7917917917917918,0.7685084873410226
11,1.8018018018018018,0.781581141053327
11,1.8118118118118118,0.7793435261902338
11,1.8218218218218218,0.7758687120276073
11,1.8318318318318318,0.7526660933655133
11,1.8418418418418419,0.7178216859128441
11,1.8518518518518519,0.696815597710789
11,1.8618618618618619,0.6569294493555997
11,1.8718718718718719,0.6182730548535831
11,1.8818818818818819,0.5628662304088722
11,1.8918918918918919,0.5235649016300239
11,1.901901901901902,0.46201541763511683
11,1.911911911911912,0.4191447601912265
11,1.921921921921922,0.36647141948212747
11,1.931931931931932,0.31714732767199855
11,1.941941941941942,0.27534050972174823
11,1.951951951951952,0.23177204990571387
11,1.961961961961962,0.1907357301286027
11,1.971971971971972,0.15065604662645224
11,1.981981981981982,0.11559942332877905
11,1.991991991991992,0.09147179471423814
11,2.002002002002002,0.05956832087681721
11,2.012012012012012,0.04682848820742695
11,2.022022022022022,0.028218553995952293
11,2.032032032032032,0.007199468078876673
11,2.042042042042042,0.00649299670760501
11,2.052052052052052,-0.006873547356258057
11,2.062062062062062,0.0032390202505990276
11,2.0720720720720722,0.00263507419489592
11,2.0820820820820822,0.004656446796017692
11,2.0920920920920922,-0.005805595869459126
11,2.1021021021021022,-0.0022523892123941184
11,2.1121121121121122,0.0018927843665824604
11,2.1221221221221223,-0.015545482867310235
11,2.1321321321321323,-0.011692365004493555
11,2.1421421421421423,-0.025735339452306757
11,2.1521521521521523,-0.041957775179519714
11,2.1621621621621623,-0.06232963967789464
11,2.1721721721721723,-0.08528368824718192
11,2.1821821821821823,-0.10423529277798692
11,2.1921921921921923,-0.14027439875785103
11,2.2022022022022023,-0.16972624740893266
11,2.2122122122122123,-0.2210364607889726
11,2.2222222222222223,-0.25967201574574056
11,2.2322322322322323,-0.2961011335940817
11,2.2422422422422423,-0.35178943230513626
11,2.2522522522522523,-0.40058431790662624
11,2.2622622622622623,-0.4474076646791113
11,2.2722722722722724,-0.5110847476004355
11,2.2822822822822824,-0.5549341644394176
11,2.2922922922922924,-0.5978576740166985
11,2.3023023023023024,-0.6381042848083797
11,2.3123123123123124,-0.6870622797977003
11,2.3223223223223224,-0.7113559873715356
11,2.3323323323323324,-0.7439377995417782
11,2.3423423423423424,-0.7572759851774032
11,2.3523523523523524,-0.7773543863837205
11,2.3623623623623624,-0.7695082177362945
11,2.3723723723723724,-0.7771028854830341
11,2.3823823823823824,-0.7568681248570641
11,2.3923923923923924,-0.7378049479265819
11,2.4024024024024024,-0.694534204131934
11,2.4124124124124124,-0.6598242178126856
11,2.4224224224224224,-0.6153442345676858
11,2.4324324324324325,-0.5452822265115054
11,2.4424424424424425,-0.4920651943539213
11,2.4524524524524525,-0.4038204316511488
11,2.4624624624624625,-0.3290031524550925
11,2.4724724724724725,-0.24660064615367064
11,2.4824824824824825,-0.16866608090119023
11,2.4924924924924925,-0.0640228848642513
11,2.5025025025025025,0.01848918519212623
11,2.5125125125125125,0.11103296430663846
11,2.5225225225225225,0.19886514281498338
11,2.5325325325325325,0.2837780833890663
11,2.5425425425425425,0.36737262676097876
11,2.5525525525525525,0.4397946109126682
11,2.5625625625625625,0.5154609228128698
11,2.5725725725725725,0.5762291432641687
11,2.5825825825825826,0.6369130190190591
11,2.5925925925925926,0.6891858247577057
11,2.6026026026026026,0.7126776498387599
11,2.6126126126126126,0.7510684982719623
11,2.6226226226226226,0.7732204130771945
11,2.6326326326326326,0.775234674455453
11,2.6426426426426426,0.7775231890138324
11,2.6526526526526526,0.7799590420307428
11,2.6626626626626626,0.7451111573684097
11,2.6726726726726726,0.7394997327334389
11,2.6826826826826826,0.7009400840940623
11,2.6926926926926926,0.6712423200737668
11,2.7027027027027026,0.6180958639698797
11,2.7127127127127126,0.5791715430299168
11,2.7227227227227226,0.5352627534467554
11,2.7327327327327327,0.48483563565229826
11,2.7427427427427427,0.43040624301538327
11,2.7527527527527527,0.3813535114725014
11,2.7627627627627627,0.33536595051211615
11,2.7727727727727727,0.2912408914398246
11,2.7827827827827827,0.23276470605766864
11,2.7927927927927927,0.19161664622284744
11,2.8028028028028027,0.16440753530099794
11,2.8128128128128127,0.12523749900738182
11,2.8228228228228227,0.09627468439858182
11,2.8328328328328327,0.06461603663625702
11,2.8428428428428427,0.057910325777348115
11,2.8528528528528527,0.02430241168538371
11,2.8628628628628627,0.014932501203843058
11,2.8728728728728727,0.0031975114135778995
11,2.8828828828828827,0.0007364161177210856
11,2.8928928928928928,0.0016153982094350065
11,2.9029029029029028,-0.00475397579883253
11,2.9129129129129128,-0.010849346807025692
11,2.9229229229229228,-0.007691689559179159
11,2.932932932932933,-0.004150250974974713
11,2.942942942942943,-0.0015328241479057947
11,2.952952952952953,-0.005673357978628468
11,2.962962962962963,-0.007520280093539443
11,2.972972972972973,-0.023751053960693835
11,2.982982982982983,-0.027800604271774183
11,2.992992992992993,-0.051306963772357175
11,3.003003003003003,-0.07775718357901056
11,3.013013013013013,-0.09313349360470916
11,3.023023023023023,-0.13799847306116408
11,3.033033033033033,-0.16667914831188138
11,3.043043043043043,-0.20181828571055435
11,3.053053053053053,-0.24337737782683735
11,3.063063063063063,-0.29342276771586956
11,3.073073073073073,-0.3361088035634018
11,3.083083083083083,-0.3976269571101016
11,3.093093093093093,-0.4456503746384751
11,3.103103103103103,-0.4909252267354348
11,3.113113113113113,-0.547801884685894
11,3.123123123123123,-0.5968007428321568
11,3.133133133133133,-0.6344211761244526
11,3.143143143143143,-0.6731856674773072
11,3.153153153153153,-0.710794839418924
11,3.163163163163163,-0.7392014247034934
11,3.173173173173173,-0.7649495778888075
11,3.183183183183183,-0.7720171998047798
11,3.193193193193193,-0.7697031999617399
11,3.203203203203203,-0.776525289957554
11,3.2132132132132134,-0.7659027399830501
11,3.2232232232232234,-0.7406496207548647
11,3.2332332332332334,-0.7090991736824569
11,3.2432432432432434,-0.6711442198832482
11,3.2532532532532534,-0.6234128342900218
11,3.2632632632632634,-0.5678886829202917
11,3.2732732732732734,-0.4914174184638671
11,3.2832832832832834,-0.4271807332126956
11,3.2932932932932935,-0.34798084845289995
11,3.3033033033033035,-0.28013162562404287
11,3.3133133133133135,-0.17567097464655843
11,3.3233233233233235,-0.09305677970567468
11,3.3333333333333335,-0.003936826210832738
11,3.3433433433433435,0.08812490666962634
11,3.3533533533533535,0.18314805888633756
11,3.3633633633633635,0.26325789454604853
11,3.3733733733733735,0.3524848077727359
11,3.3833833833833835,0.42566029434854935
11,3.3933933933933935,0.5004692610511483
11,3.4034034034034035,0.5695330562447358
11,3.4134134134134135,0.6181080592111481
11,3.4234234234234235,0.6751441357498771
11,3.4334334334334335,0.7009104183706693
11,3.4434434434434436,0.740028602483881
11,3.4534534534534536,0.7616261539837901
11,3.4634634634634636,0.7727446520663622
11,3.4734734734734736,0.7698579340030411
11,3.4834834834834836,0.7704623013773726
11,3.4934934934934936,0.7632180417281347
11,3.5035035035035036,0.7338281737108306
11,3.5135135135135136,0.7157170465958077
11,3.5235235235235236,0.6642337584590782
11,3.5335335335335336,0.6330416687475612
11,3.5435435435435436,0.5954496536040321
11,3.5535535535535536,0.5482327111163819
11,3.5635635635635636,0.488475748198236
11,3.5735735735735736,0.4494034260625804
11,3.5835835835835836,0.38522290380123186
11,3.5935935935935936,0.34266010150804577
11,3.6036036036036037,0.29150313257342364
11,3.6136136136136137,0.24792308195265242
11,3.6236236236236237,0.20885243899229589
11,3.6336336336336337,0.15855681411147304
11,3.6436436436436437,0.13502718272028374
11,3.6536536536536537,0.09745901002978065
11,3.6636636636636637,0.07742286224679727
11,3.6736736736736737,0.05197854996160459
11,3.6836836836836837,0.03325270128469607
11,3.6936936936936937,0.021614908030386133
11,3.7037037037037037,0.01948524452336966
11,3.7137137137137137,-0.010389758691310515
11,3.7237237237237237,0.0067021049880813255
11,3.7337337337337337,0.008298006896622849
11,3.7437437437437437,-0.001983407856256539
11,3.7537537537537538,0.0030790361368403883
11,3.7637637637637638,0.001399783404717925
11,3.7737737737737738,-0.0017901933115504047
11,3.7837837837837838,0.005418975221521091
11,3.793793793793794,-0.009482981627863485
11,3.803803803803804,-0.014800444848186054
11,3.813813813813814,-0.03333542280693563
11,3.823823823823824,-0.05656244216286261
11,3.833833833833834,-0.0655164287192773
11,3.843843843843844,-0.08855038675773137
11,3.853853853853854,-0.126108903205671
11,3.863863863863864,-0.15703330148823336
11,3.873873873873874,-0.19516236624523275
11,3.883883883883884,-0.23451841074074012
11,3.893893893893894,-0.2874673778756501
11,3.903903903903904,-0.34085741058059726
11,3.913913913913914,-0.3858794018356569
11,3.923923923923924,-0.42917330651793545
11,3.933933933933934,-0.4780212725724037
11,3.943943943943944,-0.5269358428055344
11,3.953953953953954,-0.5739842760322583
11,3.963963963963964,-0.6288085715813935
11,3.973973973973974,-0.6756740062688921
11,3.983983983983984,-0.6939707165818034
11,3.993993993993994,-0.7266488507718671
11,4.004004004004004,-0.7505342979278433
11,4.014014014014014,-0.7728796177936257
11,4.024024024024024,-0.7713565571974141
11,4.034034034034034,-0.7662298492925985
11,4.044044044044044,-0.7676118321256397
11,4.054054054054054,-0.7471416313560408
11,4.064064064064064,-0.7260967057304283
11,4.074074074074074,-0.6851053777344241
11,4.084084084084084,-0.6308731882194538
11,4.094094094094094,-0.5766902204895615
11,4.104104104104104,-0.5144665387400743
11,4.114114114114114,-0.44976807313730066
11,4.124124124124124,-0.36601980007594703
11,4.134134134134134,-0.28821292862114223
11,4.1441441441441444,-0.19891575876629558
11,4.1541541541541545,-0.10824894896922102
11,4.1641641641641645,-0.01923126494176639
11,4.1741741741741745,0.06624208341252552
11,4.1841841841841845,0.1526401022556131
11,4.1941941941941945,0.23784499280283844
11,4.2042042042042045,0.3308491282076389
11,4.2142142142142145,0.40411001697199395
11,4.2242242242242245,0.4878430430676498
11,4.2342342342342345,0.5417905460773471
11,4.2442442442442445,0.6014425331627938
11,4.2542542542542545,0.6550919997360022
11,4.2642642642642645,0.7109999887515761
11,4.2742742742742745,0.7306061125985615
11,4.2842842842842845,0.7557055088777161
11,4.2942942942942945,0.771505695563687
11,4.3043043043043046,0.7746960219693978
11,4.314314314314315,0.7762481090795275
11,4.324324324324325,0.7678422979478113
11,4.334334334334335,0.741200794274626
11,4.344344344344345,0.7057618615855312
11,4.354354354354355,0.6753647075285237
11,4.364364364364365,0.644551579698189
11,4.374374374374375,0.6099554034516184
11,4.384384384384385,0.5506701281687563
11,4.394394394394395,0.5006812688727706
11,4.404404404404405,0.4581749539143072
11,4.414414414414415,0.40952946667823903
11,4.424424424424425,0.36089747885976137
11,4.434434434434435,0.30431123865130844
11,4.444444444444445,0.258105403146244
11,4.454454454454455,0.21375212039700509
11,4.464464464464465,0.16711937856732734
11,4.474474474474475,0.13501514778095394
11,4.484484484484485,0.10182328799036575
11,4.494494494494495,0.08395320404084845
11,4.504504504504505,0.06227367720470889
11,4.514514514514515,0.038475209180622236
11,4.524524524524525,0.01953564371047748
11,4.534534534534535,0.007473791092831318
11,4.544544544544545,0.001465945789998293
11,4.554554554554555,0.0033240713687692288
11,4.564564564564565,0.0034543038831195225
11,4.574574574574575,0.00036651406584863646
11,4.584584584584585,-0.0021744793170774723
11,4.594594594594595,-0.0058188869313302105
11,4.604604604604605,0.005009304802322131
11,4.614614614614615,-0.01776738475162671
11,4.624624624624625,-0.012546240238522221
11,4.634634634634635,-0.015316106742570381
11,4.644644644644645,-0.031924331910820086
11,4.654654654654655,-0.04537256284859092
11,4.664664664664665,-0.064002380634362
11,4.674674674674675,-0.09004380781744876
11,4.684684684684685,-0.11068314055717028
11,4.694694694694695,-0.14845056528847742
11,4.704704704704705,-0.18120629746977882
11,4.714714714714715,-0.22986412115323132
11,4.724724724724725,-0.2715411017033595
11,4.734734734734735,-0.31518349952383473
11,4.744744744744745,-0.36441716962640697
11,4.754754754754755,-0.41487587626103045
11,4.764764764764765,-0.4762911985001248
11,4.774774774774775,-0.512799124067433
11,4.784784784784785,-0.5621421856484333
11,4.794794794794795,-0.611829478994034
11,4.804804804804805,-0.6592168431367449
11,4.814814814814815,-0.6885322748718847
11,4.824824824824825,-0.7284079087543613
11,4.834834834834835,-0.7488133781361206
11,4.844844844844845,-0.7699642835625806
11,4.854854854854855,-0.7715223283023196
11,4.864864864864865,-0.7817642590868726
11,4.874874874874875,-0.7757489397862368
11,4.884884884884885,-0.7538131928281409
11,4.894894894894895,-0.7349071844951671
11,4.904904904904905,-0.7022066683003552
11,4.914914914914915,-0.640621291184993
11,4.924924924924925,-0.5994863971633645
11,4.934934934934935,-0.5297127153099439
11,4.944944944944945,-0.4627972280118729
11,4.954954954954955,-0.3875146486120785
11,4.964964964964965,-0.31263129817456975
11,4.974974974974975,-0.23326219995142805
11,4.984984984984985,-0.14040768482812396
11,4.994994994994995,-0.04810743078893591
11,5.005005005005005,0.03200377710591893
11,5.015015015015015,0.13684165255981845
11,5.025025025025025,0.22702965389031654
11,5.035035035035035,0.3078139991597625
11,5.045045045045045,0.38917256303472164
11,5.055055055055055,0.46487757689562714
11,5.065065065065065,0.5237184313996837
11,5.075075075075075,0.588388777161089
11,5.085085085085085,0.6478072682087491
11,5.095095095095095,0.6866047417157883
11,5.105105105105105,0.7301577079975674
11,5.115115115115115,0.7532684901405753
11,5.125125125125125,0.7730847206453627
11,5.135135135135135,0.773687329894144
11,5.145145145145145,0.780530869437593
11,5.155155155155155,0.7684266692868371
11,5.165165165165165,0.7543312253649551
11,5.175175175175175,0.7209659878634902
11,5.185185185185185,0.6996766527252678
11,5.195195195195195,0.6583091018550422
11,5.205205205205205,0.6128861967506497
11,5.215215215215215,0.5642997979288092
11,5.225225225225225,0.522520586086245
11,5.235235235235235,0.4717762241294357
11,5.245245245245245,0.41313072961947833
11,5.255255255255255,0.367502853717113
11,5.265265265265265,0.32024868062447
11,5.275275275275275,0.2710855098857664
11,5.285285285285285,0.2160485459262917
11,5.295295295295295,0.1832439036075961
11,5.305305305305305,0.1532494908684992
11,5.315315315315315,0.11749266620256263
11,5.325325325325325,0.08615489614008871
11,5.335335335335335,0.0608330355778817
11,5.345345345345345,0.0353327691841178
11,5.355355355355355,0.028095793642068143
11,5.365365365365365,0.014471289136838598
11,5.375375375375375,0.003363598966162771
11,5.385385385385385,-0.004214283074406855
11,5.395395395395395,0.0025787642617970353
11,5.405405405405405,-0.004963126021506047
11,5.415415415415415,-0.002875330850406044
11,5.425425425425425,0.0010626017334108208
11,5.435435435435435,-0.002220409753597952
11,5.445445445445445,-0.005283471700561726
11,5.455455455455455,-0.009877119763244853
11,5.465465465465465,-0.012700559690471043
11,5.475475475475475,-0.02657596414736214
11,5.485485485485485,-0.047985048567376405
11,5.495495495495495,-0.05742381454641773
11,5.505505505505505,-0.07305323461322612
11,5.515515515515515,-0.11321738015713763
11,5.525525525525525,-0.13398288122105326
11,5.535535535535535,-0.17272310621385167
11,5.545545545545545,-0.21889173170739476
11,5.555555555555555,-0.25980908268734854
11,5.565565565565565,-0.29656101449950145
11,5.575575575575575,-0.3568890898374516
11,5.585585585585585,-0.4110876059595724
11,5.595595595595595,-0.46728071161922496
11,5.605605605605605,-0.5034359246371333
11,5.615615615615615,-0.5534626669323778
11,5.625625625625625,-0.6012476460318092
11,5.635635635635635,-0.6417515827617893
11,5.645645645645645,-0.6811978558597357
11,5.655655655655655,-0.7187592357547918
11,5.665665665665665,-0.7489541539932993
11,5.675675675675675,-0.7664247613816966
11,5.685685685685685,-0.7776989842170845
11,5.6956956956956954,-0.7765833138712893
11,5.7057057057057055,-0.7734807475246946
11,5.7157157157157155,-0.762128417254121
11,5.7257257257257255,-0.7280715901336495
11,5.7357357357357355,-0.7062516061732713
11,5.7457457457457455,-0.6617614007027477
11,5.7557557557557555,-0.6094109301514588
11,5.7657657657657655,-0.5567382633174577
11,5.7757757757757755,-0.47849951258950035
11,5.7857857857857855,-0.40843950529945744
11,5.7957957957957955,-0.33113720349689313
11,5.8058058058058055,-0.2411225980084639
11,5.8158158158158155,-0.15549703319937605
11,5.8258258258258255,-0.06280668498664702
11,5.8358358358358355,0.021862731700134287
11,5.8458458458458455,0.12077047301984295
11,5.8558558558558556,0.19499458396143704
11,5.865865865865866,0.2922703938929344
11,5.875875875875876,0.36808360072015905
11,5.885885885885886,0.4469868557865273
11,5.895895895895896,0.5110535281661766
11,5.905905905905906,0.5817187043773546
11,5.915915915915916,0.6332130247669507
11,5.925925925925926,0.6783493637731425
11,5.935935935935936,0.7202465058886572
11,5.945945945945946,0.7484434128912313
11,5.955955955955956,0.7638461523198112
11,5.965965965965966,0.7776753715986977
11,5.975975975975976,0.7770330618098733
11,5.985985985985986,0.7709946595116517
11,5.995995995995996,0.7449102736190867
11,6.006006006006006,0.7340442222573422
11,6.016016016016016,0.7037506181234543
11,6.026026026026026,0.6627837277312262
11,6.036036036036036,0.6416702304118205
11,6.046046046046046,0.5729374688103527
11,6.056056056056056,0.5298887905351781
11,6.066066066066066,0.4819379482816061
11,6.076076076076076,0.4297171661896326
11,6.086086086086086,0.37949505106694525
11,6.096096096096096,0.33045120469138634
11,6.106106106106106,0.28523997901389336
11,6.116116116116116,0.23808760173768076
11,6.126126126126126,0.19804131632614969
11,6.136136136136136,0.15665255166794007
11,6.146146146146146,0.12139894693358166
11,6.156156156156156,0.08638614015283855
11,6.166166166166166,0.06776131116322298
11,6.176176176176176,0.03754458171880535
11,6.186186186186186,0.02295090323629994
11,6.196196196196196,0.00620503500730183
11,6.206206206206206,0.003816571318409452
11,6.216216216216216,0.01195778349925904
11,6.226226226226226,-0.0014785123191899847
11,6.236236236236236,-0.008715198946063167
11,6.246246246246246,-0.008465658767588924
11,6.256256256256256,0.0009167778719471894
11,6.266266266266266,-0.0010162154382537675
11,6.276276276276276,0.005678872010844929
11,6.286286286286286,-0.007612678549110959
11,6.296296296296296,-0.018213253375088136
11,6.306306306306306,-0.021238292232190998
11,6.316316316316316,-0.04073310112113686
11,6.326326326326326,-0.04535636027026097
11,6.336336336336336,-0.08014967995650055
11,6.346346346346346,-0.10332261075020362
11,6.356356356356356,-0.13347152286860522
11,6.366366366366366,-0.16362535948623685
11,6.376376376376376,-0.20954553702920756
11,6.386386386386386,-0.2450427646453125
11,6.396396396396396,-0.28659228044109514
11,6.406406406406406,-0.34456372390404405
11,6.416416416416417,-0.4016260303033016
11,6.426426426426427,-0.4498527857415334
11,6.436436436436437,-0.4901515494729847
11,6.446446446446447,-0.5463199649775309
11,6.456456456456457,-0.5879323922700231
11,6.466466466466467,-0.6407282526548043
11,6.476476476476477,-0.6727802256870139
11,6.486486486486487,-0.7153194583074649
11,6.496496496496497,-0.741580564077444
11,6.506506506506507,-0.7670130758446445
11,6.516516516516517,-0.7823386981609347
11,6.526526526526527,-0.785663343052717
11,6.536536536536537,-0.7782870601001352
11,6.546546546546547,-0.7728735738500265
11,6.556556556556557,-0.7419435879379062
11,6.566566566566567,-0.7014784862097465
11,6.576576576576577,-0.6752842735863606
11,6.586586586586587,-0.6100955591542598
11,6.596596596596597,-0.5639394573106792
11,6.606606606606607,-0.4942781111838993
11,6.616616616616617,-0.42533066511450357
11,6.626626626626627,-0.35633683113209197
11,6.636636636636637,-0.2636615592530393
11,6.646646646646647,-0.1846234143238506
11,6.656656656656657,-0.09588953698110986
11,6.666666666666667,0.0012906602583475364
11,6.676676676676677,0.09123103228669442
11,6.686686686686687,0.18247909963320819
11,6.696696696696697,0.2665469821899614
11,6.706706706706707,0.35468639580935135
11,6.716716716716717,0.42034593045121593
11,6.726726726726727,0.4960781837736199
11,6.736736736736737,0.5670283905655473
11,6.746746746746747,0.6286610929566342
11,6.756756756756757,0.6645610249502607
11,6.766766766766767,0.7096025476604402
11,6.776776776776777,0.7359870064932323
11,6.786786786786787,0.7616450095424064
11,6.796796796796797,0.7768264813295299
11,6.806806806806807,0.7798702371144147
11,6.816816816816817,0.773200088774908
11,6.826826826826827,0.7565087805887615
11,6.836836836836837,0.7339588881068835
11,6.846846846846847,0.7063716913696447
11,6.856856856856857,0.6730708736205265
11,6.866866866866867,0.6281903655524346
11,6.876876876876877,0.5938059883814549
11,6.886886886886887,0.5480348214085753
11,6.896896896896897,0.49563978985672924
11,6.906906906906907,0.4422375852264095
11,6.916916916916917,0.38857723514486864
11,6.926926926926927,0.3498045265876752
11,6.936936936936937,0.30131153563488655
11,6.946946946946947,0.25000639003883346
11,6.956956956956957,0.20366216700665787
11,6.966966966966967,0.1693588680394131
11,6.976976976976977,0.13452254737555558
11,6.986986986986987,0.09385209703293892
11,6.996996996996997,0.07659767624954274
11,7.007007007007007,0.05216187667777636
11,7.017017017017017,0.03929360157583599
11,7.027027027027027,0.021959675828278683
11,7.037037037037037,0.009734707096891093
11,7.047047047047047,-0.002944991052563571
11,7.057057057057057,0.007280114056614562
11,7.067067067067067,0.0003860508966045636
11,7.077077077077077,0.0003721699744707025
11,7.087087087087087,-0.0009199737230506758
11,7.097097097097097,-0.0028037121259907915
11,7.107107107107107,-0.0002786633633595733
11,7.117117117117117,0.008538674514057407
11,7.127127127127127,-0.010946016416130593
11,7.137137137137137,-0.018767927555590296
11,7.147147147147147,-0.031645385044844584
11,7.157157157157157,-0.04736711280244257
11,7.167167167167167,-0.06784970799154397
11,7.177177177177177,-0.08757952169350056
11,7.187187187187187,-0.11968876507420546
11,7.197197197197197,-0.14977849439391205
11,7.207207207207207,-0.19774498159579368
11,7.217217217217217,-0.24089257377614662
11,7.227227227227227,-0.2802437467911026
11,7.237237237237237,-0.3316877959223473
11,7.247247247247247,-0.3794564394266669
11,7.257257257257257,-0.4397551287609519
11,7.267267267267267,-0.48097889474422606
11,7.277277277277277,-0.5361398399388543
11,7.287287287287287,-0.5856478020758151
11,7.297297297297297,-0.6288281960251914
11,7.307307307307307,-0.6595875872791575
11,7.317317317317317,-0.7059543699736895
11,7.327327327327327,-0.7364949728775568
11,7.337337337337337,-0.7613726643254524
11,7.347347347347347,-0.7636491263849011
11,7.357357357357357,-0.780077449418678
11,7.367367367367367,-0.772275856261181
11,7.377377377377377,-0.7695901260998345
11,7.387387387387387,-0.7511646727787031
11,7.397397397397397,-0.7122842604818258
11,7.407407407407407,-0.6779129770342801
11,7.4174174174174174,-0.6393294701296476
11,7.4274274274274275,-0.5704628575495255
11,7.4374374374374375,-0.5212137630784969
11,7.4474474474474475,-0.4434741156184942
11,7.4574574574574575,-0.3541583623419176
11,7.4674674674674675,-0.28207359245918945
11,7.4774774774774775,-0.19921506933481825
11,7.4874874874874875,-0.11208146930637629
11,7.4974974974974975,-0.02423308068358312
11,7.5075075075075075,0.07152225624429336
11,7.5175175175175175,0.15307671278362217
11,7.5275275275275275,0.24245808223094917
11,7.5375375375375375,0.32278393716540493
11,7.5475475475475475,0.4085622540188332
11,7.5575575575575575,0.49209465295335353
11,7.5675675675675675,0.5420589335433759
11,7.5775775775775776,0.6124704797826257
11,7.587587587587588,0.6603691183990708
11,7.597597597597598,0.7015344034866301
11,7.607607607607608,0.7359544233823773
11,7.617617617617618,0.7582018297406868
11,7.627627627627628,0.774315638933127
11,7.637637637637638,0.7727483116583611
11,7.647647647647648,0.7673282843423023
11,7.657657657657658,0.7604365204441458
11,7.667667667667668,0.7493525065377872
11,7.677677677677678,0.7119088119629606
11,7.687687687687688,0.687537369362511
11,7.697697697697698,0.6545291968035333
11,7.707707707707708,0.605012334021612
11,7.717717717717718,0.5603055057725511
11,7.727727727727728,0.5105185931941154
11,7.737737737737738,0.4508832128527823
11,7.747747747747748,0.4116238054061643
11,7.757757757757758,0.3515695829960581
11,7.767767767767768,0.3082017319158877
11,7.777777777777778,0.26462875762722005
11,7.787787787787788,0.21087545437959707
11,7.797797797797798,0.17103919538967258
11,7.807807807807808,0.13524232147664306
11,7.817817817817818,0.10738800190942066
11,7.827827827827828,0.08562067878498461
11,7.837837837837838,0.054371985107918165
11,7.847847847847848,0.04676660571427156
11,7.857857857857858,0.026072485544156063
11,7.867867867867868,0.01467074223547264
11,7.877877877877878,0.010670082342614327
11,7.887887887887888,0.003362905116792387
11,7.897897897897898,0.0031309112006765853
11,7.907907907907908,0.0009345311688169477
11,7.917917917917918,-0.0024881632276247713
11,7.927927927927928,0.005961449938476478
11,7.937937937937938,0.006288706852635943
11,7.947947947947948,-0.006370202451347043
11,7.957957957957958,-0.0019958498170540304
11,7.967967967967968,-0.012673227701841051
11,7.977977977977978,-0.029302268328595848
11,7.987987987987988,-0.04297483933107758
11,7.997997997997998,-0.059787373240443295
11,8.008008008008009,-0.08824781068185833
11,8.018018018018019,-0.12513342705505615
11,8.028028028028029,-0.15709845660435895
11,8.038038038038039,-0.19897136568240983
11,8.048048048048049,-0.22247133437240676
11,8.058058058058059,-0.2705185475140248
11,8.068068068068069,-0.32024904209459026
11,8.078078078078079,-0.36476480000595224
11,8.088088088088089,-0.42023511115076234
11,8.098098098098099,-0.46275772398420695
11,8.108108108108109,-0.5276774914938055
11,8.118118118118119,-0.5645203583725346
11,8.128128128128129,-0.6158639544984674
11,8.138138138138139,-0.6554616286749576
11,8.148148148148149,-0.6954360588756158
11,8.158158158158159,-0.7306298459539184
11,8.168168168168169,-0.7517990198815085
11,8.178178178178179,-0.763106371498829
11,8.188188188188189,-0.7764897522207299
11,8.198198198198199,-0.7777639496360899
11,8.208208208208209,-0.7674825015905548
11,8.218218218218219,-0.7472482824609551
11,8.228228228228229,-0.7290228538115737
11,8.238238238238239,-0.7003496386958871
11,8.248248248248249,-0.6399529043717351
11,8.258258258258259,-0.5872183150921613
11,8.268268268268269,-0.5351003831858664
11,8.278278278278279,-0.47055423640352306
11,8.288288288288289,-0.38167868119191817
11,8.298298298298299,-0.3105501198207686
11,8.308308308308309,-0.22146622472668134
11,8.318318318318319,-0.13810905000734677
11,8.328328328328329,-0.04518978669378626
11,8.338338338338339,0.049450476966985527
11,8.348348348348349,0.1390829257380177
11,8.358358358358359,0.2265238220891191
11,8.368368368368369,0.3109189177606421
11,8.378378378378379,0.39082776848686507
11,8.388388388388389,0.45317937154114074
11,8.398398398398399,0.5350645028219232
11,8.408408408408409,0.5935970876862515
11,8.418418418418419,0.6431483789837208
11,8.428428428428429,0.6910478822416288
11,8.438438438438439,0.7280486963295697
11,8.448448448448449,0.7514975283777803
11,8.458458458458459,0.7764729617784243
11,8.468468468468469,0.7801404802718082
11,8.478478478478479,0.7691494750667396
11,8.488488488488489,0.7625391014941983
11,8.498498498498499,0.7526069451098286
11,8.508508508508509,0.7258776191990891
11,8.518518518518519,0.6857079987249666
11,8.528528528528529,0.6582475885162496
11,8.538538538538539,0.6182128792734304
11,8.548548548548549,0.5683724945629288
11,8.558558558558559,0.5188912896682881
11,8.568568568568569,0.46848756015245907
11,8.578578578578579,0.41642281797183206
11,8.588588588588589,0.3691896104566923
11,8.598598598598599,0.31268092277631065
11,8.608608608608609,0.27524186008444096
11,8.618618618618619,0.23758565600110054
11,8.62862862862863,0.18308463780313636
11,8.63863863863864,0.15493163808808189
11,8.64864864864865,0.10869864115287059
11,8.65865865865866,0.08828347569133764
11,8.66866866866867,0.0682964560883327
11,8.67867867867868,0.03384833309716919
11,8.68868868868869,0.026867412127637484
11,8.6986986986987,0.020206640690056978
11,8.70870870870871,0.015100908484137187
11,8.71871871871872,0.010300743247579586
11,8.72872872872873,0.0010515358678067936
11,8.73873873873874,0.011730402998460199
11,8.74874874874875,0.0027978060728620353
11,8.75875875875876,0.001371241197249396
11,8.76876876876877,-0.0007066474179862818
11,8.77877877877878,0.007071729957308832
11,8.78878878878879,-0.002941902460630464
11,8.7987987987988,-0.0157848483920432
11,8.80880880880881,-0.031144741756546718
11,8.81881881881882,-0.038378509487284704
11,8.82882882882883,-0.056635634117100195
11,8.83883883883884,-0.08181846637798908
11,8.84884884884885,-0.10225897957945197
11,8.85885885885886,-0.13613063468491818
11,8.86886886886887,-0.17685891799339792
11,8.87887887887888,-0.21484459932501948
11,8.88888888888889,-0.2631501749551901
11,8.8988988988989,-0.3085482351938726
11,8.90890890890891,-0.3478584652297988
11,8.91891891891892,-0.3997145023680115
11,8.92892892892893,-0.4642141728816151
11,8.93893893893894,-0.5034560950316586
11,8.94894894894895,-0.5546643930441466
11,8.95895895895896,-0.5995133923517993
11,8.96896896896897,-0.6402488256701149
11,8.97897897897898,-0.6778910378964393
11,8.98898898898899,-0.7216674657297635
11,8.998998998999,-0.7468389640139089
11,9.00900900900901,-0.7675624936243894
11,9.01901901901902,-0.7707432729115874
11,9.02902902902903,-0.7756610171985929
11,9.03903903903904,-0.7688482655985766
11,9.04904904904905,-0.7695416343371965
11,9.05905905905906,-0.7355448204476911
11,9.06906906906907,-0.7044785465005211
11,9.07907907907908,-0.6604037330158712
11,9.08908908908909,-0.6142540263066489
11,9.0990990990991,-0.5433185235828754
11,9.10910910910911,-0.4804589018219117
11,9.11911911911912,-0.40096114504831404
11,9.12912912912913,-0.33582216231314493
11,9.13913913913914,-0.24451744566868377
11,9.14914914914915,-0.15674031487362633
11,9.15915915915916,-0.06886154694897173
11,9.16916916916917,0.025217709679235395
11,9.17917917917918,0.11540378638279922
11,9.18918918918919,0.20777727151512654
11,9.1991991991992,0.2865096254054443
11,9.20920920920921,0.37354067574108984
11,9.21921921921922,0.44026738592866743
11,9.22922922922923,0.5137395464246071
11,9.23923923923924,0.5791161294114466
11,9.24924924924925,0.6252291908563695
11,9.25925925925926,0.6838231540999107
11,9.26926926926927,0.727436836843021
11,9.27927927927928,0.7499368829200252
11,9.28928928928929,0.7713847060910609
11,9.2992992992993,0.7743932527578326
11,9.30930930930931,0.7710265420512677
11,9.31931931931932,0.7718452606489253
11,9.32932932932933,0.7599562144844656
11,9.33933933933934,0.7294289294855466
11,9.34934934934935,0.6958010522210933
11,9.35935935935936,0.666120528553222
11,9.36936936936937,0.6259881078021907
11,9.37937937937938,0.5744495019002184
11,9.38938938938939,0.5256391915293095
11,9.3993993993994,0.4833190685248025
11,9.40940940940941,0.43797177599729487
11,9.41941941941942,0.3881983351055966
11,9.42942942942943,0.3299852746617321
11,9.43943943943944,0.28090562794482804
11,9.44944944944945,0.24066330257592014
11,9.45945945945946,0.1939152030741838
11,9.46946946946947,0.15911213558323462
11,9.47947947947948,0.11765309738424587
11,9.48948948948949,0.0932995415103
11,9.4994994994995,0.06542454366831015
11,9.50950950950951,0.05699394387427276
11,9.51951951951952,0.03094475265684151
11,9.52952952952953,0.01883519137264837
11,9.53953953953954,0.009732878020980435
11,9.54954954954955,0.006529877635502204
11,9.55955955955956,-0.0009302851485674529
11,9.56956956956957,0.007143590266448898
11,9.57957957957958,-0.0010709386364638695
11,9.58958958958959,-0.006075171592294268
11,9.5995995995996,-0.0013447808707592378
11,9.60960960960961,0.004306380383050788
11,9.61961961961962,-0.0019455113647448867
11,9.62962962962963,-0.013183672149076323
11,9.63963963963964,-0.02960768306935717
11,9.64964964964965,-0.039216344516796786
11,9.65965965965966,-0.0516198779377797
11,9.66966966966967,-0.07195437031059208
11,9.67967967967968,-0.09650226640959964
11,9.68968968968969,-0.1407801211048602
11,9.6996996996997,-0.166930734631131
11,9.70970970970971,-0.20690065821393822
11,9.71971971971972,-0.25185835343518065
11,9.72972972972973,-0.2915640999228488
11,9.73973973973974,-0.3402143144732671
11,9.74974974974975,-0.3907532560725703
11,9.75975975975976,-0.4462512248362658
11,9.76976976976977,-0.4913642757818356
11,9.77977977977978,-0.5412135148156376
11,9.78978978978979,-0.5901111772709778
11,9.7997997997998,-0.6314846519812213
11,9.80980980980981,-0.6740709278512398
11,9.81981981981982,-0.7148670997938883
11,9.82982982982983,-0.737910348794849
11,9.83983983983984,-0.755410372265142
11,9.84984984984985,-0.7670013862133805
11,9.85985985985986,-0.7834248905482909
11,9.86986986986987,-0.7821292775172309
11,9.87987987987988,-0.7706281150175701
11,9.88988988988989,-0.7394341792388953
11,9.8998998998999,-0.7082741938289594
11,9.90990990990991,-0.6654328853742468
11,9.91991991991992,-0.628909227531232
11,9.92992992992993,-0.563542480961527
11,9.93993993993994,-0.499053083904007
11,9.94994994994995,-0.42875344971062207
11,9.95995995995996,-0.34388267607785417
11,9.96996996996997,-0.2605115526361199
11,9.97997997997998,-0.1807212201814187
11,9.98998998998999,-0.08815666617912112
11,10.0,0.000865252736015666
