Subject_ID,Time,PPG
9,0.0,-0.0003570710963829508
9,0.01001001001001001,0.09113979182898084
9,0.02002002002002002,0.1839646342704657
9,0.03003003003003003,0.2664478973768309
9,0.04004004004004004,0.35183252174520413
9,0.050050050050050046,0.4355058758973274
9,0.06006006006006006,0.4970869446023772
9,0.07007007007007007,0.5587044497417343
9,0.08008008008008008,0.6244341677672791
9,0.09009009009009009,0.6695351423616045
9,0.10010010010010009,0.7070206216980621
9,0.11011011011011011,0.7398996801076804
9,0.12012012012012012,0.7549773902338546
9,0.13013013013013014,0.7711735209970555
9,0.14014014014014015,0.7781979350195716
9,0.15015015015015015,0.7892244306060411
9,0.16016016016016016,0.7541949710043071
9,0.17017017017017017,0.7446385706293946
9,0.18018018018018017,0.7099084804681733
9,0.19019019019019018,0.6721662162579474
9,0.20020020020020018,0.6377670770594487
9,0.21021021021021022,0.5927514057008781
9,0.22022022022022023,0.5552898509601831
9,0.23023023023023023,0.4936544976114443
9,0.24024024024024024,0.4508824470594562
9,0.2502502502502503,0.387404026912505
9,0.2602602602602603,0.3436115044185677
9,0.2702702702702703,0.2992495433055197
9,0.2802802802802803,0.2479109626923324
9,0.2902902902902903,0.19551100509339747
9,0.3003003003003003,0.1694038270352811
9,0.3103103103103103,0.14466609949057171
9,0.3203203203203203,0.0928210910715498
9,0.3303303303303303,0.08072497531654481
9,0.34034034034034033,0.048011558818645945
9,0.35035035035035034,0.03479671167628354
9,0.36036036036036034,0.018523292573080715
9,0.37037037037037035,0.0117518412718236
9,0.38038038038038036,0.015519949605268287
9,0.39039039039039036,0.008633251408910022
9,0.40040040040040037,-0.0008004123592937748
9,0.41041041041041043,0.003711386936147337
9,0.42042042042042044,-0.000258451756822841
9,0.43043043043043044,-0.005192981166091351
9,0.44044044044044045,0.003942567593328101
9,0.45045045045045046,-0.0012726624091155955
9,0.46046046046046046,-0.016023734552872232
9,0.47047047047047047,-0.01544268211868839
9,0.4804804804804805,-0.03004032425880523
9,0.4904904904904905,-0.0422806923177172
9,0.5005005005005005,-0.0680072753661788
9,0.5105105105105106,-0.10152243461349955
9,0.5205205205205206,-0.12082246089380169
9,0.5305305305305306,-0.15697990345290408
9,0.5405405405405406,-0.18912600724569997
9,0.5505505505505506,-0.22930321366199985
9,0.5605605605605606,-0.2797199206262454
9,0.5705705705705706,-0.33093501360923516
9,0.5805805805805806,-0.3855996590001285
9,0.5905905905905906,-0.42336215568131325
9,0.6006006006006006,-0.4796547755330675
9,0.6106106106106106,-0.5322118880582092
9,0.6206206206206206,-0.5859096187657276
9,0.6306306306306306,-0.6200605001415456
9,0.6406406406406406,-0.666939374262046
9,0.6506506506506506,-0.6967085342793162
9,0.6606606606606606,-0.7348951470862798
9,0.6706706706706707,-0.7552147547152448
9,0.6806806806806807,-0.765878166204706
9,0.6906906906906907,-0.7734534397533941
9,0.7007007007007007,-0.780222755284977
9,0.7107107107107107,-0.7665127661987154
9,0.7207207207207207,-0.7451798572093215
9,0.7307307307307307,-0.7171940248846952
9,0.7407407407407407,-0.6740071900787447
9,0.7507507507507507,-0.6334430313330565
9,0.7607607607607607,-0.5770864189481326
9,0.7707707707707707,-0.5221033993120194
9,0.7807807807807807,-0.43985956881386523
9,0.7907907907907907,-0.3646201685709434
9,0.8008008008008007,-0.2859349027506249
9,0.8108108108108109,-0.20136847578904948
9,0.8208208208208209,-0.12330951661388562
9,0.8308308308308309,-0.02497779192735105
9,0.8408408408408409,0.06462105061297034
9,0.8508508508508509,0.15199893216145222
9,0.8608608608608609,0.2381834868748979
9,0.8708708708708709,0.3420145799040564
9,0.8808808808808809,0.39316288717644465
9,0.8908908908908909,0.480599890613136
9,0.9009009009009009,0.5464711868053984
9,0.9109109109109109,0.6123779396845052
9,0.9209209209209209,0.6665634132590087
9,0.9309309309309309,0.6965195072265106
9,0.9409409409409409,0.7273330912179949
9,0.950950950950951,0.7580936910247418
9,0.960960960960961,0.768261249224789
9,0.970970970970971,0.7736483268908677
9,0.980980980980981,0.7723220818524
9,0.990990990990991,0.7693872614435745
9,1.001001001001001,0.7378809923949317
9,1.011011011011011,0.7147327500406828
9,1.021021021021021,0.684207346434389
9,1.031031031031031,0.6417900327893381
9,1.0410410410410411,0.6056025549950568
9,1.0510510510510511,0.5597911233253225
9,1.0610610610610611,0.5031290616648378
9,1.0710710710710711,0.46193499562423856
9,1.0810810810810811,0.40043247085949174
9,1.0910910910910911,0.3475582740058269
9,1.1011011011011012,0.30526003313017014
9,1.1111111111111112,0.2690682319281148
9,1.1211211211211212,0.2087039099939237
9,1.1311311311311312,0.18552434392160222
9,1.1411411411411412,0.13662443912893352
9,1.1511511511511512,0.11248755617522638
9,1.1611611611611612,0.07941073575404414
9,1.1711711711711712,0.05824172067793406
9,1.1811811811811812,0.041689069988073105
9,1.1911911911911912,0.02222206159507433
9,1.2012012012012012,0.025704679114621397
9,1.2112112112112112,0.015218044908634678
9,1.2212212212212212,0.00834817741478823
9,1.2312312312312312,0.0012701067158291646
9,1.2412412412412412,-0.003493696566082582
9,1.2512512512512513,-0.002527202851137438
9,1.2612612612612613,-0.004720389182885819
9,1.2712712712712713,0.0007746925026390146
9,1.2812812812812813,-0.009318589720970143
9,1.2912912912912913,-0.008336937474644758
9,1.3013013013013013,-0.01301735120420085
9,1.3113113113113113,-0.03780179272657293
9,1.3213213213213213,-0.03588893673487103
9,1.3313313313313313,-0.0661439429375924
9,1.3413413413413413,-0.09325481848107837
9,1.3513513513513513,-0.11686725943511572
9,1.3613613613613613,-0.14195623528055595
9,1.3713713713713713,-0.18221632241903735
9,1.3813813813813813,-0.2249001211327572
9,1.3913913913913913,-0.26670304703064696
9,1.4014014014014013,-0.3164743193823762
9,1.4114114114114114,-0.3645602573278066
9,1.4214214214214214,-0.4215344136208382
9,1.4314314314314314,-0.4665380614865809
9,1.4414414414414414,-0.5212802497402848
9,1.4514514514514514,-0.5647268877697934
9,1.4614614614614614,-0.6093686986904404
9,1.4714714714714714,-0.6637357460529878
9,1.4814814814814814,-0.6930628061215698
9,1.4914914914914914,-0.7299874466166058
9,1.5015015015015014,-0.7466949323419352
9,1.5115115115115114,-0.7747260637386137
9,1.5215215215215214,-0.7801725175303964
9,1.5315315315315314,-0.7710886978927612
9,1.5415415415415414,-0.778829367377301
9,1.5515515515515514,-0.7582844073223444
9,1.5615615615615615,-0.7296926916555115
9,1.5715715715715715,-0.6913129385802175
9,1.5815815815815815,-0.6535297781033713
9,1.5915915915915915,-0.5902563309539736
9,1.6016016016016015,-0.5306808450362988
9,1.6116116116116117,-0.47126757700632393
9,1.6216216216216217,-0.38884848362023083
9,1.6316316316316317,-0.31017276220537937
9,1.6416416416416417,-0.2241225589109573
9,1.6516516516516517,-0.1389124045908474
9,1.6616616616616617,-0.04178575924361535
9,1.6716716716716717,0.04734121915722968
9,1.6816816816816818,0.13434900376408485
9,1.6916916916916918,0.2286444624813822
9,1.7017017017017018,0.31261122055075047
9,1.7117117117117118,0.39082438232365274
9,1.7217217217217218,0.4699626422905071
9,1.7317317317317318,0.5263925858618697
9,1.7417417417417418,0.5894067620978454
9,1.7517517517517518,0.6485035709618366
9,1.7617617617617618,0.6950140062798528
9,1.7717717717717718,0.7396500707370307
9,1.7817817817817818,0.752010201108804
9,1.7917917917917918,0.7723559521215477
9,1.8018018018018018,0.778039543086683
9,1.8118118118118118,0.7781322835315798
9,1.8218218218218218,0.7742282283867798
9,1.8318318318318318,0.7329886649356587
9,1.8418418418418419,0.7283935013511584
9,1.8518518518518519,0.6946472803408155
9,1.8618618618618619,0.659686876231332
9,1.8718718718718719,0.6140027148304308
9,1.8818818818818819,0.5799467068241969
9,1.8918918918918919,0.5225749174544195
9,1.901901901901902,0.475705175942619
9,1.911911911911912,0.41857526517134785
9,1.921921921921922,0.3628422000731266
9,1.931931931931932,0.3204755772335228
9,1.941941941941942,0.2695836281278954
9,1.951951951951952,0.22864733200572113
9,1.961961961961962,0.18156015032112266
9,1.971971971971972,0.1480430839856358
9,1.981981981981982,0.10860472128231351
9,1.991991991991992,0.09089215886100319
9,2.002002002002002,0.06061071121970341
9,2.012012012012012,0.04102245974491456
9,2.022022022022022,0.029236545281936522
9,2.032032032032032,0.011399563123591479
9,2.042042042042042,0.009373208677588023
9,2.052052052052052,0.001496362806398629
9,2.062062062062062,0.006103635662952747
9,2.0720720720720722,0.004356480354121235
9,2.0820820820820822,0.004689861043809903
9,2.0920920920920922,0.012709169372759269
9,2.1021021021021022,-0.005030048889880609
9,2.1121121121121122,0.0028705529050404577
9,2.1221221221221223,-0.014954090382613342
9,2.1321321321321323,-0.014169115175352583
9,2.1421421421421423,-0.026060395481104608
9,2.1521521521521523,-0.04329515175449221
9,2.1621621621621623,-0.05822619516709814
9,2.1721721721721723,-0.06934088839161218
9,2.1821821821821823,-0.09592117338497504
9,2.1921921921921923,-0.13399232647416678
9,2.2022022022022023,-0.16636013507449074
9,2.2122122122122123,-0.2197487170775068
9,2.2222222222222223,-0.2620658009247014
9,2.2322322322322323,-0.3004796661706815
9,2.2422422422422423,-0.35184811466692095
9,2.2522522522522523,-0.4024090552046147
9,2.2622622622622623,-0.46627815405759426
9,2.2722722722722724,-0.5074820361127589
9,2.2822822822822824,-0.5473068965219963
9,2.2922922922922924,-0.5992931018995948
9,2.3023023023023024,-0.6480423807978017
9,2.3123123123123124,-0.6760303916899081
9,2.3223223223223224,-0.7272444833861132
9,2.3323323323323324,-0.7427577563233929
9,2.3423423423423424,-0.7681746641903459
9,2.3523523523523524,-0.7677455234615217
9,2.3623623623623624,-0.777523400731803
9,2.3723723723723724,-0.7812387817225231
9,2.3823823823823824,-0.7639647193799686
9,2.3923923923923924,-0.7319682292647759
9,2.4024024024024024,-0.697445932056696
9,2.4124124124124124,-0.6521751097606316
9,2.4224224224224224,-0.6078724406270829
9,2.4324324324324325,-0.5458277922676142
9,2.4424424424424425,-0.4754331712733515
9,2.4524524524524525,-0.3980385844898419
9,2.4624624624624625,-0.3200771259842304
9,2.4724724724724725,-0.24053170273987115
9,2.4824824824824825,-0.14639354464762241
9,2.4924924924924925,-0.0706763909610944
9,2.5025025025025025,0.020774227857473623
9,2.5125125125125125,0.11449171978324321
9,2.5225225225225225,0.20054680878225947
9,2.5325325325325325,0.2902309038128266
9,2.5425425425425425,0.36613376651557833
9,2.5525525525525525,0.44842881488161784
9,2.5625625625625625,0.5202557553602443
9,2.5725725725725725,0.5796695808698211
9,2.5825825825825826,0.6415852169111576
9,2.5925925925925926,0.6782149023237557
9,2.6026026026026026,0.7140599093250037
9,2.6126126126126126,0.738102807965004
9,2.6226226226226226,0.779445462694102
9,2.6326326326326326,0.7702761280906513
9,2.6426426426426426,0.7765626956906219
9,2.6526526526526526,0.7639173734519616
9,2.6626626626626626,0.7553976346543256
9,2.6726726726726726,0.7348552203803058
9,2.6826826826826826,0.7058257514094702
9,2.6926926926926926,0.6663185090818476
9,2.7027027027027026,0.6259898836180504
9,2.7127127127127126,0.5831313410212907
9,2.7227227227227226,0.5257909198253001
9,2.7327327327327327,0.49671473378764497
9,2.7427427427427427,0.42983022295179985
9,2.7527527527527527,0.3875812117638019
9,2.7627627627627627,0.32972204629099705
9,2.7727727727727727,0.280322257486495
9,2.7827827827827827,0.2390048659983977
9,2.7927927927927927,0.1872772549777602
9,2.8028028028028027,0.1621868335002041
9,2.8128128128128127,0.13009644882676347
9,2.8228228228228227,0.09453130319479155
9,2.8328328328328327,0.06452527740114902
9,2.8428428428428427,0.04809330250794743
9,2.8528528528528527,0.0357627115784797
9,2.8628628628628627,0.006635913622093877
9,2.8728728728728727,0.01189643639612323
9,2.8828828828828827,0.006079280775074773
9,2.8928928928928928,-0.0018511120173206348
9,2.9029029029029028,0.008523891298246962
9,2.9129129129129128,0.005932498618904675
9,2.9229229229229228,0.005400979730879758
9,2.932932932932933,0.0010469283905908849
9,2.942942942942943,-0.003405848557004174
9,2.952952952952953,0.0007965172604910715
9,2.962962962962963,-0.011207727943957933
9,2.972972972972973,-0.013443766478682406
9,2.982982982982983,-0.03839328784143765
9,2.992992992992993,-0.058942990145927784
9,3.003003003003003,-0.07275483526413672
9,3.013013013013013,-0.10681267930852877
9,3.023023023023023,-0.13528960726345315
9,3.033033033033033,-0.16679776045928307
9,3.043043043043043,-0.21071726945601504
9,3.053053053053053,-0.23985214418220566
9,3.063063063063063,-0.30075719732057105
9,3.073073073073073,-0.3381112492774691
9,3.083083083083083,-0.3955810095975954
9,3.093093093093093,-0.43485770913520505
9,3.103103103103103,-0.48787864639330775
9,3.113113113113113,-0.5445687861355738
9,3.123123123123123,-0.585042622957648
9,3.133133133133133,-0.6342382950867086
9,3.143143143143143,-0.672199332257577
9,3.153153153153153,-0.7124133436419814
9,3.163163163163163,-0.7445046955077195
9,3.173173173173173,-0.7626611264686045
9,3.183183183183183,-0.7774655987834252
9,3.193193193193193,-0.7745728168294873
9,3.203203203203203,-0.7802319347795539
9,3.2132132132132134,-0.7661706367019376
9,3.2232232232232234,-0.74114966607301
9,3.2332332332332334,-0.7221688044852708
9,3.2432432432432434,-0.6656038206983433
9,3.2532532532532534,-0.6248325397704032
9,3.2632632632632634,-0.5607590734549015
9,3.2732732732732734,-0.4988358217041687
9,3.2832832832832834,-0.43066956026220266
9,3.2932932932932935,-0.34795399008589517
9,3.3033033033033035,-0.2614939163490193
9,3.3133133133133135,-0.1815171391598508
9,3.3233233233233235,-0.0960085620832618
9,3.3333333333333335,-0.0038389798114984402
9,3.3433433433433435,0.08949966844389123
9,3.3533533533533535,0.17624477945999298
9,3.3633633633633635,0.2600734034972802
9,3.3733733733733735,0.3448159067464607
9,3.3833833833833835,0.4328171680855402
9,3.3933933933933935,0.503305404844772
9,3.4034034034034035,0.5573510310575013
9,3.4134134134134135,0.6211571371665346
9,3.4234234234234235,0.6740422989807022
9,3.4334334334334335,0.7172345153932542
9,3.4434434434434436,0.7410037782233546
9,3.4534534534534536,0.7591590062541753
9,3.4634634634634636,0.7854502350061843
9,3.4734734734734736,0.7831895609612595
9,3.4834834834834836,0.7784372488288983
9,3.4934934934934936,0.7578601955620472
9,3.5035035035035036,0.7336769983000017
9,3.5135135135135136,0.7137138353067513
9,3.5235235235235236,0.6681741055175154
9,3.5335335335335336,0.6359465815127431
9,3.5435435435435436,0.5965791827444695
9,3.5535535535535536,0.548255987617525
9,3.5635635635635636,0.4983981974006834
9,3.5735735735735736,0.4468507652751697
9,3.5835835835835836,0.39666548743379465
9,3.5935935935935936,0.3319640258034693
9,3.6036036036036037,0.2996810802488232
9,3.6136136136136137,0.2519192212233125
9,3.6236236236236237,0.20784683728612457
9,3.6336336336336337,0.1631201224312391
9,3.6436436436436437,0.13315471234362425
9,3.6536536536536537,0.1053425745068921
9,3.6636636636636637,0.07358034020935567
9,3.6736736736736737,0.05057637461809952
9,3.6836836836836837,0.036100340499935
9,3.6936936936936937,0.024613158954029667
9,3.7037037037037037,0.01611343473093587
9,3.7137137137137137,0.0065254877085844445
9,3.7237237237237237,-0.0019171893300542545
9,3.7337337337337337,-0.005201249022604387
9,3.7437437437437437,0.01651491310207995
9,3.7537537537537538,-0.004785812880701624
9,3.7637637637637638,-0.0047087031865232
9,3.7737737737737738,-0.013483500485918965
9,3.7837837837837838,-0.008453723766535304
9,3.793793793793794,-0.006466893578761777
9,3.803803803803804,-0.014303124532630473
9,3.813813813813814,-0.026924339677726623
9,3.823823823823824,-0.05098690212332325
9,3.833833833833834,-0.07133998697300209
9,3.843843843843844,-0.09089403412326837
9,3.853853853853854,-0.12476977051569066
9,3.863863863863864,-0.16308732083291932
9,3.873873873873874,-0.19768100708462924
9,3.883883883883884,-0.24060512495470984
9,3.893893893893894,-0.28636819235290845
9,3.903903903903904,-0.3379345947586101
9,3.913913913913914,-0.38709844472331967
9,3.923923923923924,-0.43523859044334495
9,3.933933933933934,-0.4809899943404227
9,3.943943943943944,-0.5294246603279658
9,3.953953953953954,-0.565024209679835
9,3.963963963963964,-0.6251461237749323
9,3.973973973973974,-0.6652342043326017
9,3.983983983983984,-0.7044716967949195
9,3.993993993993994,-0.7191273183221986
9,4.004004004004004,-0.7626182568155082
9,4.014014014014014,-0.7685567248499473
9,4.024024024024024,-0.7768476000625782
9,4.034034034034034,-0.7832961729376818
9,4.044044044044044,-0.7637961434790305
9,4.054054054054054,-0.7454036126100605
9,4.064064064064064,-0.7114212710152814
9,4.074074074074074,-0.683150691540166
9,4.084084084084084,-0.632819315228837
9,4.094094094094094,-0.5777659897343362
9,4.104104104104104,-0.509333207375884
9,4.114114114114114,-0.43661539891908235
9,4.124124124124124,-0.3752041045146292
9,4.134134134134134,-0.29052369506728654
9,4.1441441441441444,-0.20283700658146026
9,4.1541541541541545,-0.10554951881543187
9,4.1641641641641645,-0.012934861349102551
9,4.1741741741741745,0.06778952437929374
9,4.1841841841841845,0.16635526043032808
9,4.1941941941941945,0.23853523681368616
9,4.2042042042042045,0.3264332544489555
9,4.2142142142142145,0.40584866105307027
9,4.2242242242242245,0.4760502952566398
9,4.2342342342342345,0.5449025750587413
9,4.2442442442442445,0.603785199666138
9,4.2542542542542545,0.65883878574326
9,4.2642642642642645,0.703360576595614
9,4.2742742742742745,0.7371268112466144
9,4.2842842842842845,0.7601958292293187
9,4.2942942942942945,0.774547758412843
9,4.3043043043043046,0.7772289986712235
9,4.314314314314315,0.7823222341944517
9,4.324324324324325,0.7671880528469346
9,4.334334334334335,0.7373478613897683
9,4.344344344344345,0.7131018252947291
9,4.354354354354355,0.6916828360836195
9,4.364364364364365,0.6474031787955945
9,4.374374374374375,0.6045190360127689
9,4.384384384384385,0.5597467102949997
9,4.394394394394395,0.5152025146749055
9,4.404404404404405,0.45435144984144593
9,4.414414414414415,0.41280501929768604
9,4.424424424424425,0.3555283471146944
9,4.434434434434435,0.30743735246094034
9,4.444444444444445,0.2544537830414414
9,4.454454454454455,0.2293343603585769
9,4.464464464464465,0.17603281549503824
9,4.474474474474475,0.13907338001792297
9,4.484484484484485,0.11195071450339257
9,4.494494494494495,0.07887490258261586
9,4.504504504504505,0.05741026968128622
9,4.514514514514515,0.03308025607803369
9,4.524524524524525,0.02598099054542656
9,4.534534534534535,0.014915625061549387
9,4.544544544544545,0.00795434245774175
9,4.554554554554555,0.009717455467882129
9,4.564564564564565,0.0005487938711252374
9,4.574574574574575,0.003922235874426033
9,4.584584584584585,-0.0032336243820412546
9,4.594594594594595,-0.0020351530450388317
9,4.604604604604605,-0.00011286348739883065
9,4.614614614614615,-0.010122739600298542
9,4.624624624624625,-0.013068064472741715
9,4.634634634634635,-0.022385698122969828
9,4.644644644644645,-0.023428818704554447
9,4.654654654654655,-0.035734821262793016
9,4.664664664664665,-0.06707280020005671
9,4.674674674674675,-0.09196691565050646
9,4.684684684684685,-0.1212379083802887
9,4.694694694694695,-0.14834369123965915
9,4.704704704704705,-0.1920177226291814
9,4.714714714714715,-0.23053163272396965
9,4.724724724724725,-0.27558235672433035
9,4.734734734734735,-0.3129909267464979
9,4.744744744744745,-0.370837949289892
9,4.754754754754755,-0.422303437780818
9,4.764764764764765,-0.46960433014005565
9,4.774774774774775,-0.5160017830888755
9,4.784784784784785,-0.5715376656638036
9,4.794794794794795,-0.6218518657589639
9,4.804804804804805,-0.6583274507588709
9,4.814814814814815,-0.6949940132570374
9,4.824824824824825,-0.7273278119926074
9,4.834834834834835,-0.7448252096183103
9,4.844844844844845,-0.7680732228155058
9,4.854854854854855,-0.7715980880964076
9,4.864864864864865,-0.7935147714291826
9,4.874874874874875,-0.768707271964516
9,4.884884884884885,-0.7519303731552801
9,4.894894894894895,-0.7321360665523742
9,4.904904904904905,-0.6769687142148242
9,4.914914914914915,-0.6480237618635619
9,4.924924924924925,-0.5971140805935127
9,4.934934934934935,-0.5378957745563246
9,4.944944944944945,-0.45988319325245963
9,4.954954954954955,-0.39601289710874493
9,4.964964964964965,-0.3081578942936172
9,4.974974974974975,-0.22791133576015948
9,4.984984984984985,-0.12995627734512322
9,4.994994994994995,-0.044371042691333955
9,5.005005005005005,0.04217172511093429
9,5.015015015015015,0.13386206542534473
9,5.025025025025025,0.21981541841075455
9,5.035035035035035,0.3142619584080644
9,5.045045045045045,0.3918330179356807
9,5.055055055055055,0.46160770897828873
9,5.065065065065065,0.5281663962896783
9,5.075075075075075,0.5968468926818903
9,5.085085085085085,0.6438141526371357
9,5.095095095095095,0.6993566785879756
9,5.105105105105105,0.723289814783283
9,5.115115115115115,0.7568755858908434
9,5.125125125125125,0.7780055101695149
9,5.135135135135135,0.7901648819112452
9,5.145145145145145,0.781169708988592
9,5.155155155155155,0.7612308753017699
9,5.165165165165165,0.758683355042493
9,5.175175175175175,0.7185251237278653
9,5.185185185185185,0.6961214322880369
9,5.195195195195195,0.6577563364637499
9,5.205205205205205,0.6103829282402214
9,5.215215215215215,0.5630088646894179
9,5.225225225225225,0.5250968528018839
9,5.235235235235235,0.47244292680483674
9,5.245245245245245,0.41844121856332167
9,5.255255255255255,0.37475717360440763
9,5.265265265265265,0.3194292078994643
9,5.275275275275275,0.2670720131309951
9,5.285285285285285,0.2286165609595678
9,5.295295295295295,0.19122311315170884
9,5.305305305305305,0.15259726103379798
9,5.315315315315315,0.11833571129655118
9,5.325325325325325,0.08227368069852682
9,5.335335335335335,0.06547018380146497
9,5.345345345345345,0.04618091078073882
9,5.355355355355355,0.031406143670327735
9,5.365365365365365,0.01966247082921241
9,5.375375375375375,0.009225329520572798
9,5.385385385385385,0.002256434888359655
9,5.395395395395395,0.0045148179793195655
9,5.405405405405405,0.0025556553907065665
9,5.415415415415415,0.004035211821439563
9,5.425425425425425,0.003650144418525717
9,5.435435435435435,-0.008810332520670056
9,5.445445445445445,-0.003591490127711876
9,5.455455455455455,-0.003886129375687098
9,5.465465465465465,-0.018087351077354364
9,5.475475475475475,-0.02679118931128778
9,5.485485485485485,-0.04482363641798433
9,5.495495495495495,-0.06466460440641764
9,5.505505505505505,-0.07731119514113248
9,5.515515515515515,-0.11018071305913657
9,5.525525525525525,-0.14109531741189688
9,5.535535535535535,-0.17233849064939943
9,5.545545545545545,-0.2187077954900749
9,5.555555555555555,-0.2666861290844592
9,5.565565565565565,-0.30373420926099304
9,5.575575575575575,-0.36019012856945926
9,5.585585585585585,-0.4067433523706435
9,5.595595595595595,-0.45313668914761673
9,5.605605605605605,-0.5140435116533255
9,5.615615615615615,-0.5461769809199243
9,5.625625625625625,-0.6028662324088325
9,5.635635635635635,-0.6340147893502136
9,5.645645645645645,-0.6858339828734079
9,5.655655655655655,-0.7122575628307202
9,5.665665665665665,-0.7480421145949933
9,5.675675675675675,-0.7586857567159008
9,5.685685685685685,-0.7849951494631948
9,5.6956956956956954,-0.7853348188790877
9,5.7057057057057055,-0.772608562276866
9,5.7157157157157155,-0.7576335300784685
9,5.7257257257257255,-0.7333404187050542
9,5.7357357357357355,-0.7094330136720985
9,5.7457457457457455,-0.6599597677282121
9,5.7557557557557555,-0.6072990137599538
9,5.7657657657657655,-0.5463025854366104
9,5.7757757757757755,-0.4775013378332721
9,5.7857857857857855,-0.3976202491999612
9,5.7957957957957955,-0.31738796020958454
9,5.8058058058058055,-0.2525592711469867
9,5.8158158158158155,-0.1617626040559198
9,5.8258258258258255,-0.058478898073414075
9,5.8358358358358355,0.02314760668146297
9,5.8458458458458455,0.1161163296418951
9,5.8558558558558556,0.20321936351216194
9,5.865865865865866,0.2895083579414537
9,5.875875875875876,0.3621594234472537
9,5.885885885885886,0.43890204097583774
9,5.895895895895896,0.5146224984462568
9,5.905905905905906,0.5840704919009965
9,5.915915915915916,0.6453796315482119
9,5.925925925925926,0.6803755006360244
9,5.935935935935936,0.7157870999863899
9,5.945945945945946,0.7510327528977416
9,5.955955955955956,0.7613495177495206
9,5.965965965965966,0.7801340024297504
9,5.975975975975976,0.7752128679325297
9,5.985985985985986,0.7697501669683193
9,5.995995995995996,0.7569900987195289
9,6.006006006006006,0.729252173655806
9,6.016016016016016,0.7078384083616309
9,6.026026026026026,0.6778523970927129
9,6.036036036036036,0.6156176115125435
9,6.046046046046046,0.5849019430301257
9,6.056056056056056,0.5310825375236495
9,6.066066066066066,0.48539812482280564
9,6.076076076076076,0.427766747233169
9,6.086086086086086,0.3849376911871606
9,6.096096096096096,0.3330347373692015
9,6.106106106106106,0.284117311288676
9,6.116116116116116,0.23917662906252035
9,6.126126126126126,0.1960126208666796
9,6.136136136136136,0.1603792897178161
9,6.146146146146146,0.12083727811613468
9,6.156156156156156,0.09553512950721788
9,6.166166166166166,0.06149004276237762
9,6.176176176176176,0.0473729440442877
9,6.186186186186186,0.02624163242724924
9,6.196196196196196,0.0181348013846232
9,6.206206206206206,0.008267380458912697
9,6.216216216216216,0.003936815672697351
9,6.226226226226226,-0.003427024218038425
9,6.236236236236236,-0.003552581861512267
9,6.246246246246246,0.0038037509804385635
9,6.256256256256256,-0.0005456257878853918
9,6.266266266266266,-0.005599689462388388
9,6.276276276276276,-0.01278775108814034
9,6.286286286286286,-0.003023823502635393
9,6.296296296296296,-0.012186999929158088
9,6.306306306306306,-0.024742911864108916
9,6.316316316316316,-0.04375123348899772
9,6.326326326326326,-0.05266511634361519
9,6.336336336336336,-0.07455079962735622
9,6.346346346346346,-0.1112788012847866
9,6.356356356356356,-0.1328881966237356
9,6.366366366366366,-0.16344520796470052
9,6.376376376376376,-0.19852560073984765
9,6.386386386386386,-0.247694428652861
9,6.396396396396396,-0.29697290872234877
9,6.406406406406406,-0.34193777772908895
9,6.416416416416417,-0.39290410336909315
9,6.426426426426427,-0.44234656078384166
9,6.436436436436437,-0.5025372963545676
9,6.446446446446447,-0.5503170406674966
9,6.456456456456457,-0.5887605344797253
9,6.466466466466467,-0.6397432612046794
9,6.476476476476477,-0.6740906750994589
9,6.486486486486487,-0.7038051989460119
9,6.496496496496497,-0.7353085185446152
9,6.506506506506507,-0.7682225284334738
9,6.516516516516517,-0.7804985303696549
9,6.526526526526527,-0.7733283475839732
9,6.536536536536537,-0.763692250084359
9,6.546546546546547,-0.7539201923028097
9,6.556556556556557,-0.744667601160233
9,6.566566566566567,-0.7072106576651386
9,6.576576576576577,-0.6710555552914885
9,6.586586586586587,-0.6131505978964067
9,6.596596596596597,-0.5620682195071598
9,6.606606606606607,-0.49873300690614203
9,6.616616616616617,-0.4260841566426234
9,6.626626626626627,-0.3536316573915762
9,6.636636636636637,-0.2619660509544553
9,6.646646646646647,-0.18369359244950137
9,6.656656656656657,-0.09564834705874722
9,6.666666666666667,0.0013617262804487347
9,6.676676676676677,0.08598775637218864
9,6.686686686686687,0.17673960914230144
9,6.696696696696697,0.26976181026428286
9,6.706706706706707,0.36213224682739265
9,6.716716716716717,0.41574507305131236
9,6.726726726726727,0.49844344601741475
9,6.736736736736737,0.5611529555912254
9,6.746746746746747,0.6274923958129237
9,6.756756756756757,0.6643957847757439
9,6.766766766766767,0.7075450757506752
9,6.776776776776777,0.7441569505580657
9,6.786786786786787,0.7701531994820707
9,6.796796796796797,0.7691283574390391
9,6.806806806806807,0.7772284694747162
9,6.816816816816817,0.7757503299523332
9,6.826826826826827,0.7511434829337175
9,6.836836836836837,0.735211470605853
9,6.846846846846847,0.7056712853527032
9,6.856856856856857,0.6881279213791716
9,6.866866866866867,0.6324861758137539
9,6.876876876876877,0.5905177138291722
9,6.886886886886887,0.5450698588340481
9,6.896896896896897,0.48905182820346493
9,6.906906906906907,0.4439909791778251
9,6.916916916916917,0.39873306436729733
9,6.926926926926927,0.3448440017322401
9,6.936936936936937,0.2994242798586312
9,6.946946946946947,0.25889132188548336
9,6.956956956956957,0.19953488577682374
9,6.966966966966967,0.16863031200490822
9,6.976976976976977,0.12687947022922902
9,6.986986986986987,0.09166535332809136
9,6.996996996996997,0.067768018567445
9,7.007007007007007,0.05057982109205196
9,7.017017017017017,0.03500549612868213
9,7.027027027027027,0.01586163643233488
9,7.037037037037037,0.00988268891740432
9,7.047047047047047,0.003098727529864918
9,7.057057057057057,-0.0012242932865959275
9,7.067067067067067,0.0032027001096372916
9,7.077077077077077,0.0006869024770852209
9,7.087087087087087,-0.002929978883503083
9,7.097097097097097,0.0025372867423455792
9,7.107107107107107,-0.0037856018163459197
9,7.117117117117117,-0.0017742977624126827
9,7.127127127127127,-0.014128678199489653
9,7.137137137137137,-0.019106005569063625
9,7.147147147147147,-0.02841055302480939
9,7.157157157157157,-0.04902386705450648
9,7.167167167167167,-0.0719004995014918
9,7.177177177177177,-0.09611430366613236
9,7.187187187187187,-0.12631590319265715
9,7.197197197197197,-0.1587064573036485
9,7.207207207207207,-0.1901094521256735
9,7.217217217217217,-0.23557958981525515
9,7.227227227227227,-0.2888741038898994
9,7.237237237237237,-0.32792843752689727
9,7.247247247247247,-0.3734630658503758
9,7.257257257257257,-0.42806357268328327
9,7.267267267267267,-0.47947178363588167
9,7.277277277277277,-0.5366743922667456
9,7.287287287287287,-0.5737657899089572
9,7.297297297297297,-0.6281174363740945
9,7.307307307307307,-0.6726094003408162
9,7.317317317317317,-0.7007288363169465
9,7.327327327327327,-0.7309509968672842
9,7.337337337337337,-0.750476845527594
9,7.347347347347347,-0.7699193299957828
9,7.357357357357357,-0.7903185572131672
9,7.367367367367367,-0.7764278200598593
9,7.377377377377377,-0.7661025788593389
9,7.387387387387387,-0.7434963947227492
9,7.397397397397397,-0.7186101728610079
9,7.407407407407407,-0.6932444945361742
9,7.4174174174174174,-0.6340233211247515
9,7.4274274274274275,-0.5783030074347765
9,7.4374374374374375,-0.5186725053767405
9,7.4474474474474475,-0.4446912120039886
9,7.4574574574574575,-0.36581046733511885
9,7.4674674674674675,-0.28788841147597793
9,7.4774774774774775,-0.201553658857425
9,7.4874874874874875,-0.11012180858410199
9,7.4974974974974975,-0.029137348059269923
9,7.5075075075075075,0.06373215407905111
9,7.5175175175175175,0.1636672275690131
9,7.5275275275275275,0.25282099097544264
9,7.5375375375375375,0.33301543694479546
9,7.5475475475475475,0.4016065697776763
9,7.5575575575575575,0.4848259199707055
9,7.5675675675675675,0.5412483242716841
9,7.5775775775775776,0.6168178619122013
9,7.587587587587588,0.6630337653503464
9,7.597597597597598,0.7049830259267695
9,7.607607607607608,0.7327786044357764
9,7.617617617617618,0.7600387385093882
9,7.627627627627628,0.7736396959093541
9,7.637637637637638,0.7803371862899101
9,7.647647647647648,0.7665983952517254
9,7.657657657657658,0.7674657120298456
9,7.667667667667668,0.7428154088017926
9,7.677677677677678,0.7128239345681436
9,7.687687687687688,0.6842823798469779
9,7.697697697697698,0.6510935477788354
9,7.707707707707708,0.6031271749703727
9,7.717717717717718,0.5585475757459765
9,7.727727727727728,0.5058987380876346
9,7.737737737737738,0.4505446613686602
9,7.747747747747748,0.40075017580345923
9,7.757757757757758,0.36204811143348253
9,7.767767767767768,0.3091623074644346
9,7.777777777777778,0.25445747455709095
9,7.787787787787788,0.20893922186382766
9,7.797797797797798,0.17620652365148598
9,7.807807807807808,0.13904350458191245
9,7.817817817817818,0.11248791294209005
9,7.827827827827828,0.09166831034172379
9,7.837837837837838,0.05986090651074775
9,7.847847847847848,0.038036743949873254
9,7.857857857857858,0.030632774592618945
9,7.867867867867868,0.013060600991047971
9,7.877877877877878,0.0050558505776962595
9,7.887887887887888,0.0006467485317291368
9,7.897897897897898,0.004238539289411921
9,7.907907907907908,-0.0006637276388955764
9,7.917917917917918,0.0037353270325967006
9,7.927927927927928,-0.0016156201715178753
9,7.937937937937938,0.000626892167040092
9,7.947947947947948,-0.0009446244618483536
9,7.957957957957958,-0.0016519160185856745
9,7.967967967967968,-0.012176005267359185
9,7.977977977977978,-0.023926090797762707
9,7.987987987987988,-0.0418395584173854
9,7.997997997997998,-0.06437479985722101
9,8.008008008008009,-0.09440109306052782
9,8.018018018018019,-0.1075342394527356
9,8.028028028028029,-0.16129600059385413
9,8.038038038038039,-0.1857381590903577
9,8.048048048048049,-0.22541828777475376
9,8.058058058058059,-0.27956859730237005
9,8.068068068068069,-0.3131525914784135
9,8.078078078078079,-0.35944424582499235
9,8.088088088088089,-0.4222209352636382
9,8.098098098098099,-0.46272664909662026
9,8.108108108108109,-0.5138883523096294
9,8.118118118118119,-0.5587625905674048
9,8.128128128128129,-0.6133349029703409
9,8.138138138138139,-0.6577779625432497
9,8.148148148148149,-0.6992700556583792
9,8.158158158158159,-0.7257897662430236
9,8.168168168168169,-0.7594379552683088
9,8.178178178178179,-0.763014122001276
9,8.188188188188189,-0.7840710089816059
9,8.198198198198199,-0.78313469991459
9,8.208208208208209,-0.7678418628799324
9,8.218218218218219,-0.7484259861450278
9,8.228228228228229,-0.7218384904700722
9,8.238238238238239,-0.6873732455353416
9,8.248248248248249,-0.6538567648591995
9,8.258258258258259,-0.5944926350890061
9,8.268268268268269,-0.5326445727501726
9,8.278278278278279,-0.46756144056735044
9,8.288288288288289,-0.3884013373410761
9,8.298298298298299,-0.3176684022642389
9,8.308308308308309,-0.2223280907026111
9,8.318318318318319,-0.13507470736261298
9,8.328328328328329,-0.04412057538977343
9,8.338338338338339,0.04008861851972041
9,8.348348348348349,0.1259309192813833
9,8.358358358358359,0.21849968734840722
9,8.368368368368369,0.304797901922605
9,8.378378378378379,0.38707265772352667
9,8.388388388388389,0.46177220190184914
9,8.398398398398399,0.5314470516226152
9,8.408408408408409,0.5933654248362205
9,8.418418418418419,0.6516071065665046
9,8.428428428428429,0.6896984851396378
9,8.438438438438439,0.7284822349168134
9,8.448448448448449,0.7618569840175935
9,8.458458458458459,0.7685226860719042
9,8.468468468468469,0.7786931248036627
9,8.478478478478479,0.7882805585930888
9,8.488488488488489,0.7823523784987662
9,8.498498498498499,0.7420928527589867
9,8.508508508508509,0.7259491675633067
9,8.518518518518519,0.6936490095324518
9,8.528528528528529,0.6568633004063725
9,8.538538538538539,0.6270683167819899
9,8.548548548548549,0.5599769286219025
9,8.558558558558559,0.5179709406571275
9,8.568568568568569,0.46833548312774254
9,8.578578578578579,0.4234088635613785
9,8.588588588588589,0.35681679725788346
9,8.598598598598599,0.3177441489174205
9,8.608608608608609,0.2767248679352918
9,8.618618618618619,0.23916666545198176
9,8.62862862862863,0.17834604385490904
9,8.63863863863864,0.14032096989470158
9,8.64864864864865,0.11469238259652292
9,8.65865865865866,0.08404560918791441
9,8.66866866866867,0.05787778947911746
9,8.67867867867868,0.03865299421522448
9,8.68868868868869,0.03532280159118023
9,8.6986986986987,0.016232211678484126
9,8.70870870870871,0.010524883966498207
9,8.71871871871872,0.0037599260873624877
9,8.72872872872873,0.0030520889091306246
9,8.73873873873874,0.0008300150481433378
9,8.74874874874875,0.00042528400591713105
9,8.75875875875876,-0.0038677233184692228
9,8.76876876876877,0.0007045796846137332
9,8.77877877877878,0.004003283721198252
9,8.78878878878879,0.007828431074959868
9,8.7987987987988,-0.006873876359389491
9,8.80880880880881,-0.021467288697684973
9,8.81881881881882,-0.04423618175411492
9,8.82882882882883,-0.05379142809684181
9,8.83883883883884,-0.08208856993767162
9,8.84884884884885,-0.11073590711269758
9,8.85885885885886,-0.1350877341100367
9,8.86886886886887,-0.17545650968665827
9,8.87887887887888,-0.22281850099481104
9,8.88888888888889,-0.25267089683571015
9,8.8988988988989,-0.30873593624121576
9,8.90890890890891,-0.35894064819073285
9,8.91891891891892,-0.40801978784256576
9,8.92892892892893,-0.452471509585969
9,8.93893893893894,-0.5069167326418395
9,8.94894894894895,-0.5582308735335745
9,8.95895895895896,-0.6034385684555309
9,8.96896896896897,-0.6496826436400975
9,8.97897897897898,-0.6889838771938298
9,8.98898898898899,-0.7224983328788971
9,8.998998998999,-0.7446727109713002
9,9.00900900900901,-0.7626604801697479
9,9.01901901901902,-0.7767782436361484
9,9.02902902902903,-0.7856987040119005
9,9.03903903903904,-0.7763998255568811
9,9.04904904904905,-0.7653242426719641
9,9.05905905905906,-0.7349132094197481
9,9.06906906906907,-0.6983931969483064
9,9.07907907907908,-0.6589737961608063
9,9.08908908908909,-0.6095970036455131
9,9.0990990990991,-0.5388655945507665
9,9.10910910910911,-0.4907560651972802
9,9.11911911911912,-0.40958250697775644
9,9.12912912912913,-0.32428925698375777
9,9.13913913913914,-0.2452499987171761
9,9.14914914914915,-0.1662593677582611
9,9.15915915915916,-0.06619441496901224
9,9.16916916916917,0.02425197838449801
9,9.17917917917918,0.11130926401598219
9,9.18918918918919,0.20538544453181212
9,9.1991991991992,0.2916536024736791
9,9.20920920920921,0.37200069753218423
9,9.21921921921922,0.44678656277675555
9,9.22922922922923,0.506199254444802
9,9.23923923923924,0.5832156862052792
9,9.24924924924925,0.6387933102638448
9,9.25925925925926,0.681394465750688
9,9.26926926926927,0.7151680549114632
9,9.27927927927928,0.7493326213882825
9,9.28928928928929,0.7639188254382152
9,9.2992992992993,0.7759568963490375
9,9.30930930930931,0.7783294501498367
9,9.31931931931932,0.7740281300107945
9,9.32932932932933,0.7534011187234113
9,9.33933933933934,0.7253853822334757
9,9.34934934934935,0.6974492805274133
9,9.35935935935936,0.6633471757734827
9,9.36936936936937,0.6143562073962736
9,9.37937937937938,0.5762107550832233
9,9.38938938938939,0.5389056312619895
9,9.3993993993994,0.4721115886415804
9,9.40940940940941,0.4336899961516724
9,9.41941941941942,0.37590583784428677
9,9.42942942942943,0.34037147418590424
9,9.43943943943944,0.28537543482461974
9,9.44944944944945,0.2424923039372418
9,9.45945945945946,0.19782443728252705
9,9.46946946946947,0.1559361738813617
9,9.47947947947948,0.11064503627557105
9,9.48948948948949,0.09131888829359089
9,9.4994994994995,0.07500003902047851
9,9.50950950950951,0.04847266703874613
9,9.51951951951952,0.03593753069359318
9,9.52952952952953,0.019132552578929422
9,9.53953953953954,0.01026677558327783
9,9.54954954954955,0.007713683214857955
9,9.55955955955956,-0.006995313642853506
9,9.56956956956957,-0.003198838213395994
9,9.57957957957958,0.001193965027271141
9,9.58958958958959,0.0025371136685971864
9,9.5995995995996,-0.006441515549398558
9,9.60960960960961,0.0012061268304140713
9,9.61961961961962,-0.003639615919236219
9,9.62962962962963,-0.008239184507967926
9,9.63963963963964,-0.025200048028309437
9,9.64964964964965,-0.035256546529060115
9,9.65965965965966,-0.05138583414663822
9,9.66966966966967,-0.06429897531988114
9,9.67967967967968,-0.09697309043962339
9,9.68968968968969,-0.1275824750559089
9,9.6996996996997,-0.16417030017361323
9,9.70970970970971,-0.20267906249494624
9,9.71971971971972,-0.24240566232112384
9,9.72972972972973,-0.3018765864134557
9,9.73973973973974,-0.3424534602453946
9,9.74974974974975,-0.38922743732557175
9,9.75975975975976,-0.43328723613262415
9,9.76976976976977,-0.5001774722880892
9,9.77977977977978,-0.5390350753078965
9,9.78978978978979,-0.5857527228361153
9,9.7997997997998,-0.6425132415156423
9,9.80980980980981,-0.666047837319522
9,9.81981981981982,-0.7184985068672326
9,9.82982982982983,-0.7342679234535958
9,9.83983983983984,-0.7573041853433488
9,9.84984984984985,-0.7669644498449236
9,9.85985985985986,-0.7833403968191387
9,9.86986986986987,-0.7753697506405305
9,9.87987987987988,-0.7676453179628915
9,9.88988988988989,-0.749588251280428
9,9.8998998998999,-0.7052434579644777
9,9.90990990990991,-0.6798802720582772
9,9.91991991991992,-0.6260523364251944
9,9.92992992992993,-0.561450133300738
9,9.93993993993994,-0.49563991076977765
9,9.94994994994995,-0.42546246555309747
9,9.95995995995996,-0.3494753894233565
9,9.96996996996997,-0.2612458674941408
9,9.97997997997998,-0.17972601055687473
9,9.98998998998999,-0.0847667732085611
9,10.0,0.00022208850986298991
