Subject_ID,Time,PPG
3,0.0,-0.00196360621657964
3,0.01001001001001001,0.08868817616141182
3,0.02002002002002002,0.18070358224651292
3,0.03003003003003003,0.269242334396974
3,0.04004004004004004,0.36113364093162376
3,0.050050050050050046,0.42710027829967195
3,0.06006006006006006,0.49624362351553575
3,0.07007007007007007,0.5614592652473279
3,0.08008008008008008,0.6326195396628077
3,0.09009009009009009,0.660377315799547
3,0.10010010010010009,0.7108071647211605
3,0.11011011011011011,0.7324216450504296
3,0.12012012012012012,0.7560729410287557
3,0.13013013013013014,0.7761508820339577
3,0.14014014014014015,0.7828492572994276
3,0.15015015015015015,0.7705333123432004
3,0.16016016016016016,0.7655180606295968
3,0.17017017017017017,0.733122213827277
3,0.18018018018018017,0.7034893058696253
3,0.19019019019019018,0.6774499847098996
3,0.20020020020020018,0.6442830665160102
3,0.21021021021021022,0.598659942472597
3,0.22022022022022023,0.5447844887653212
3,0.23023023023023023,0.49107154158250504
3,0.24024024024024024,0.4474536972635988
3,0.2502502502502503,0.38587776658075185
3,0.2602602602602603,0.34117689829943043
3,0.2702702702702703,0.2932030444102216
3,0.2802802802802803,0.24123423002923408
3,0.2902902902902903,0.20941573771158367
3,0.3003003003003003,0.1632302338809108
3,0.3103103103103103,0.13211782246432235
3,0.3203203203203203,0.1068326862408058
3,0.3303303303303303,0.06511030033316201
3,0.34034034034034033,0.049644962713427394
3,0.35035035035035034,0.033802216452551166
3,0.36036036036036034,0.02344598973630632
3,0.37037037037037035,0.0003457010187252942
3,0.38038038038038036,0.010443826016042806
3,0.39039039039039036,0.0011847720185407043
3,0.40040040040040037,-0.0030779807050423306
3,0.41041041041041043,-0.0043698749311182295
3,0.42042042042042044,-0.0077950331112368685
3,0.43043043043043044,-0.006940427688152318
3,0.44044044044044045,0.001348941469750144
3,0.45045045045045046,0.0040816090341504185
3,0.46046046046046046,-0.0070541261078134136
3,0.47047047047047047,-0.019089986125527175
3,0.4804804804804805,-0.031100706511812667
3,0.4904904904904905,-0.05269657498052336
3,0.5005005005005005,-0.0692655705079091
3,0.5105105105105106,-0.08936956652903974
3,0.5205205205205206,-0.12370360384721059
3,0.5305305305305306,-0.15289143462753846
3,0.5405405405405406,-0.18707972494396574
3,0.5505505505505506,-0.24031540205610133
3,0.5605605605605606,-0.28156107288522353
3,0.5705705705705706,-0.3342875558440735
3,0.5805805805805806,-0.38280363227844516
3,0.5905905905905906,-0.43189612990455667
3,0.6006006006006006,-0.4811992328140239
3,0.6106106106106106,-0.5308018262251709
3,0.6206206206206206,-0.5793475334443079
3,0.6306306306306306,-0.6183692784383226
3,0.6406406406406406,-0.6647284950586474
3,0.6506506506506506,-0.6978265874318647
3,0.6606606606606606,-0.7333867484573264
3,0.6706706706706707,-0.7588472863063153
3,0.6806806806806807,-0.7741885896390743
3,0.6906906906906907,-0.7841371843731664
3,0.7007007007007007,-0.7715650606158068
3,0.7107107107107107,-0.7679940672553704
3,0.7207207207207207,-0.755995695059816
3,0.7307307307307307,-0.7235120307144098
3,0.7407407407407407,-0.6887227128058321
3,0.7507507507507507,-0.6307922550292047
3,0.7607607607607607,-0.5780720142284277
3,0.7707707707707707,-0.5227451194960283
3,0.7807807807807807,-0.4500448581161325
3,0.7907907907907907,-0.36916933700344057
3,0.8008008008008007,-0.2877089990435648
3,0.8108108108108109,-0.21002099734877017
3,0.8208208208208209,-0.11359143108492924
3,0.8308308308308309,-0.017671770702612836
3,0.8408408408408409,0.06677863802406579
3,0.8508508508508509,0.15959517372103402
3,0.8608608608608609,0.23503874158180707
3,0.8708708708708709,0.31885518701430654
3,0.8808808808808809,0.40926725779929524
3,0.8908908908908909,0.4886302724418713
3,0.9009009009009009,0.5462110696418687
3,0.9109109109109109,0.6058423714942519
3,0.9209209209209209,0.6621120698779033
3,0.9309309309309309,0.6974991073700433
3,0.9409409409409409,0.7300202103985962
3,0.950950950950951,0.7717571748290653
3,0.960960960960961,0.7684899573793028
3,0.970970970970971,0.7822527389000169
3,0.980980980980981,0.7720774352834057
3,0.990990990990991,0.7642963558345088
3,1.001001001001001,0.7412311717288562
3,1.011011011011011,0.724593119923115
3,1.021021021021021,0.6858335965519204
3,1.031031031031031,0.6520970102178916
3,1.0410410410410411,0.6017030022445545
3,1.0510510510510511,0.5520314704776663
3,1.0610610610610611,0.516582414785716
3,1.0710710710710711,0.46588584984440085
3,1.0810810810810811,0.4034803224209783
3,1.0910910910910911,0.36541013522329296
3,1.1011011011011012,0.3058844050788896
3,1.1111111111111112,0.26576265197652454
3,1.1211211211211212,0.2177995070097713
3,1.1311311311311312,0.16295189531315574
3,1.1411411411411412,0.1410069558895821
3,1.1511511511511512,0.10534939556007655
3,1.1611611611611612,0.07990437290874895
3,1.1711711711711712,0.06255219703171935
3,1.1811811811811812,0.038987242178474595
3,1.1911911911911912,0.02492546237462261
3,1.2012012012012012,0.02789345506370957
3,1.2112112112112112,0.01306461175294594
3,1.2212212212212212,0.010884437165414396
3,1.2312312312312312,0.004050313033786329
3,1.2412412412412412,-0.0030575991062562636
3,1.2512512512512513,0.00020016042526420174
3,1.2612612612612613,-0.001044454741236977
3,1.2712712712712713,0.004520424042731021
3,1.2812812812812813,-0.0017824262947945934
3,1.2912912912912913,-0.007368590299356854
3,1.3013013013013013,-0.01929739723748726
3,1.3113113113113113,-0.029065632036802586
3,1.3213213213213213,-0.04182720865520675
3,1.3313313313313313,-0.07112138120259506
3,1.3413413413413413,-0.09214764648393578
3,1.3513513513513513,-0.10890324066959502
3,1.3613613613613613,-0.15390423472350998
3,1.3713713713713713,-0.19349372246935262
3,1.3813813813813813,-0.21910546573492423
3,1.3913913913913913,-0.2698309845891281
3,1.4014014014014013,-0.3212563668237435
3,1.4114114114114114,-0.370740374037691
3,1.4214214214214214,-0.4213707026760941
3,1.4314314314314314,-0.4684778096023727
3,1.4414414414414414,-0.5205412466681193
3,1.4514514514514514,-0.5644193562988233
3,1.4614614614614614,-0.6184484655508362
3,1.4714714714714714,-0.6583884781621722
3,1.4814814814814814,-0.6822184213412098
3,1.4914914914914914,-0.7303169196012527
3,1.5015015015015014,-0.7553481596751631
3,1.5115115115115114,-0.7631585197472868
3,1.5215215215215214,-0.7749337137860527
3,1.5315315315315314,-0.7707236809029837
3,1.5415415415415414,-0.7748901499417675
3,1.5515515515515514,-0.74996138615272
3,1.5615615615615615,-0.7273823464824413
3,1.5715715715715715,-0.7031313031389878
3,1.5815815815815815,-0.6526060351059436
3,1.5915915915915915,-0.6035099844933346
3,1.6016016016016015,-0.5360257893050095
3,1.6116116116116117,-0.4560524797636686
3,1.6216216216216217,-0.3929158670808347
3,1.6316316316316317,-0.3067809985391894
3,1.6416416416416417,-0.2190767440318505
3,1.6516516516516517,-0.13776992992382658
3,1.6616616616616617,-0.03810336421064317
3,1.6716716716716717,0.03927041496513807
3,1.6816816816816818,0.13841419128354665
3,1.6916916916916918,0.22893758942574305
3,1.7017017017017018,0.29918714055068607
3,1.7117117117117118,0.39012589513344426
3,1.7217217217217218,0.46071790064818985
3,1.7317317317317318,0.5269600499881301
3,1.7417417417417418,0.5921935050747524
3,1.7517517517517518,0.6474592386870301
3,1.7617617617617618,0.6912736813790964
3,1.7717717717717718,0.7216325830755783
3,1.7817817817817818,0.7505229920817932
3,1.7917917917917918,0.7688307341667197
3,1.8018018018018018,0.7739986234830473
3,1.8118118118118118,0.7761753991330399
3,1.8218218218218218,0.7686337531546644
3,1.8318318318318318,0.7525250968953138
3,1.8418418418418419,0.7335832241247022
3,1.8518518518518519,0.6982275192306034
3,1.8618618618618619,0.6610455800096773
3,1.8718718718718719,0.6080259919440274
3,1.8818818818818819,0.5730300873842403
3,1.8918918918918919,0.5232525459137507
3,1.901901901901902,0.47404323828463096
3,1.911911911911912,0.41011239106542574
3,1.921921921921922,0.36606851011089653
3,1.931931931931932,0.32524691653938925
3,1.941941941941942,0.2729869615837692
3,1.951951951951952,0.2279224644514703
3,1.961961961961962,0.18467831319817318
3,1.971971971971972,0.13733036631229348
3,1.981981981981982,0.10702437711192968
3,1.991991991991992,0.0798242572666812
3,2.002002002002002,0.06674732882932474
3,2.012012012012012,0.0444547864812354
3,2.022022022022022,0.03347923032368659
3,2.032032032032032,0.020486817253895673
3,2.042042042042042,0.0026586978791538936
3,2.052052052052052,-0.0002721035854950831
3,2.062062062062062,0.0008685033951201817
3,2.0720720720720722,0.0038462750366342977
3,2.0820820820820822,-0.000989234052486771
3,2.0920920920920922,0.00028392134834117396
3,2.1021021021021022,-0.005811719063713728
3,2.1121121121121122,-0.00981188187890514
3,2.1221221221221223,0.0024098906344991664
3,2.1321321321321323,-0.01992535376403969
3,2.1421421421421423,-0.026454363092190836
3,2.1521521521521523,-0.0449588477599028
3,2.1621621621621623,-0.06703806044543985
3,2.1721721721721723,-0.07756502414494236
3,2.1821821821821823,-0.09723290442316568
3,2.1921921921921923,-0.13022261246065767
3,2.2022022022022023,-0.17137110279548123
3,2.2122122122122123,-0.22050218234392022
3,2.2222222222222223,-0.26435293724155273
3,2.2322322322322323,-0.30892246932588835
3,2.2422422422422423,-0.35266021886716364
3,2.2522522522522523,-0.403026169454797
3,2.2622622622622623,-0.45701070147907186
3,2.2722722722722724,-0.5102540778699981
3,2.2822822822822824,-0.5536954815131447
3,2.2922922922922924,-0.61008405951985
3,2.3023023023023024,-0.6384105912097794
3,2.3123123123123124,-0.6798222766968472
3,2.3223223223223224,-0.7207446568651061
3,2.3323323323323324,-0.7443485432982779
3,2.3423423423423424,-0.7542388029410163
3,2.3523523523523524,-0.7667052070846992
3,2.3623623623623624,-0.7844737658975951
3,2.3723723723723724,-0.7743626209257612
3,2.3823823823823824,-0.7585236402264194
3,2.3923923923923924,-0.741487288052014
3,2.4024024024024024,-0.7075911058539389
3,2.4124124124124124,-0.664643346293626
3,2.4224224224224224,-0.605062328980645
3,2.4324324324324325,-0.5498886388342804
3,2.4424424424424425,-0.47640810414872636
3,2.4524524524524525,-0.4163238317856642
3,2.4624624624624625,-0.32048085383808267
3,2.4724724724724725,-0.2438821755012782
3,2.4824824824824825,-0.15270481454934262
3,2.4924924924924925,-0.06947937528391071
3,2.5025025025025025,0.02702588623242276
3,2.5125125125125125,0.11182683098959677
3,2.5225225225225225,0.20570996839656386
3,2.5325325325325325,0.28317543370156484
3,2.5425425425425425,0.374087254058035
3,2.5525525525525525,0.44281716584181896
3,2.5625625625625625,0.5167156006689748
3,2.5725725725725725,0.5733707104341518
3,2.5825825825825826,0.632071751200828
3,2.5925925925925926,0.6761714894670114
3,2.6026026026026026,0.720373483760912
3,2.6126126126126126,0.7494222136229698
3,2.6226226226226226,0.7780105590766796
3,2.6326326326326326,0.7749298126376463
3,2.6426426426426426,0.7775390882159516
3,2.6526526526526526,0.7800022067468451
3,2.6626626626626626,0.7610651893028778
3,2.6726726726726726,0.7377428154756875
3,2.6826826826826826,0.6923506584182649
3,2.6926926926926926,0.6674072216216006
3,2.7027027027027026,0.6255603522801784
3,2.7127127127127126,0.5808580628726709
3,2.7227227227227226,0.5383292083083742
3,2.7327327327327327,0.48886797841416035
3,2.7427427427427427,0.4205618256621306
3,2.7527527527527527,0.37753607771945524
3,2.7627627627627627,0.3273721206724073
3,2.7727727727727727,0.27552568456302423
3,2.7827827827827827,0.24060216068858242
3,2.7927927927927927,0.19614986650309643
3,2.8028028028028027,0.14939447467124328
3,2.8128128128128127,0.11974044650809318
3,2.8228228228228227,0.10186366252022357
3,2.8328328328328327,0.061346369055154795
3,2.8428428428428427,0.04934862169511346
3,2.8528528528528527,0.02782176035419969
3,2.8628628628628627,0.017330613890520503
3,2.8728728728728727,0.00978496286703933
3,2.8828828828828827,0.00414480838096758
3,2.8928928928928928,-0.0010436528037107554
3,2.9029029029029028,-0.00882082440277921
3,2.9129129129129128,0.000876204114637567
3,2.9229229229229228,0.011463246189495395
3,2.932932932932933,-0.002934868539146807
3,2.942942942942943,-0.009412647846795208
3,2.952952952952953,-0.006830586289719616
3,2.962962962962963,-0.007654079857930499
3,2.972972972972973,-0.012510168876746344
3,2.982982982982983,-0.03748238588677515
3,2.992992992992993,-0.051231924872202274
3,3.003003003003003,-0.08051240684838445
3,3.013013013013013,-0.09487983780884388
3,3.023023023023023,-0.1316075983654011
3,3.033033033033033,-0.1707505927247275
3,3.043043043043043,-0.2019801632357356
3,3.053053053053053,-0.2564825034537273
3,3.063063063063063,-0.29886842663695595
3,3.073073073073073,-0.33574729555155314
3,3.083083083083083,-0.3944767680538272
3,3.093093093093093,-0.43673091143408366
3,3.103103103103103,-0.5013278200771878
3,3.113113113113113,-0.5429798074372426
3,3.123123123123123,-0.5898526607170201
3,3.133133133133133,-0.6387793320503578
3,3.143143143143143,-0.6719296321313758
3,3.153153153153153,-0.7110142187794852
3,3.163163163163163,-0.7401900040655089
3,3.173173173173173,-0.7491111508526277
3,3.183183183183183,-0.7721731579381539
3,3.193193193193193,-0.7839933469732124
3,3.203203203203203,-0.773992744170528
3,3.2132132132132134,-0.763665633326316
3,3.2232232232232234,-0.7381254233767623
3,3.2332332332332334,-0.7182288387484154
3,3.2432432432432434,-0.671046392734968
3,3.2532532532532534,-0.6204523793791532
3,3.2632632632632634,-0.5553636993873287
3,3.2732732732732734,-0.48949326255315323
3,3.2832832832832834,-0.4308878143291304
3,3.2932932932932935,-0.35189965316511285
3,3.3033033033033035,-0.2647412811268021
3,3.3133133133133135,-0.18088070735051795
3,3.3233233233233235,-0.09393279616356957
3,3.3333333333333335,0.0034976535736687088
3,3.3433433433433435,0.08866244770351221
3,3.3533533533533535,0.18166999508361278
3,3.3633633633633635,0.2683220645738297
3,3.3733733733733735,0.3523320882951391
3,3.3833833833833835,0.4219729093013144
3,3.3933933933933935,0.4950908516698175
3,3.4034034034034035,0.5644306212794493
3,3.4134134134134135,0.6213172194002891
3,3.4234234234234235,0.6666511278627509
3,3.4334334334334335,0.7066930144942538
3,3.4434434434434436,0.7398014542476335
3,3.4534534534534536,0.7584707852143523
3,3.4634634634634636,0.7713451494949246
3,3.4734734734734736,0.7832274624238312
3,3.4834834834834836,0.7769419024618058
3,3.4934934934934936,0.7585948410755822
3,3.5035035035035036,0.7369735944095521
3,3.5135135135135136,0.701243770648834
3,3.5235235235235236,0.673246362215982
3,3.5335335335335336,0.6409922596592514
3,3.5435435435435436,0.5889813153021275
3,3.5535535535535536,0.5421830219353388
3,3.5635635635635636,0.4966501927947515
3,3.5735735735735736,0.4485238151835238
3,3.5835835835835836,0.4025461649578113
3,3.5935935935935936,0.3397842057495637
3,3.6036036036036037,0.2914831856167438
3,3.6136136136136137,0.24359119507420235
3,3.6236236236236237,0.204935794028737
3,3.6336336336336337,0.17321081732596966
3,3.6436436436436437,0.13368267687263133
3,3.6536536536536537,0.0925422202565909
3,3.6636636636636637,0.07385827641321703
3,3.6736736736736737,0.0525179871915384
3,3.6836836836836837,0.03552556194480781
3,3.6936936936936937,0.02180578711491303
3,3.7037037037037037,0.01863977111575372
3,3.7137137137137137,0.013416896716987672
3,3.7237237237237237,0.004267632862399608
3,3.7337337337337337,0.0014578910111669595
3,3.7437437437437437,0.005767455997644545
3,3.7537537537537538,0.006920154161624745
3,3.7637637637637638,-0.002970463549495206
3,3.7737737737737738,-0.01051616086196577
3,3.7837837837837838,-0.0012620911176905673
3,3.793793793793794,-0.014331958024888871
3,3.803803803803804,-0.022975266029658686
3,3.813813813813814,-0.031603341411243976
3,3.823823823823824,-0.04970425273238392
3,3.833833833833834,-0.06954501051634336
3,3.843843843843844,-0.09948122753656581
3,3.853853853853854,-0.11847548405322532
3,3.863863863863864,-0.15288048650162173
3,3.873873873873874,-0.19917236508150474
3,3.883883883883884,-0.2392038667342706
3,3.893893893893894,-0.2789494927625136
3,3.903903903903904,-0.32863486208651865
3,3.913913913913914,-0.39330143120513117
3,3.923923923923924,-0.4304807381783206
3,3.933933933933934,-0.4851802331854756
3,3.943943943943944,-0.5281439965649577
3,3.953953953953954,-0.5777740650906418
3,3.963963963963964,-0.6274550137415688
3,3.973973973973974,-0.6620009407525359
3,3.983983983983984,-0.6968740396850577
3,3.993993993993994,-0.7240940798050792
3,4.004004004004004,-0.7520236117989046
3,4.014014014014014,-0.7777667517144463
3,4.024024024024024,-0.7804225706698205
3,4.034034034034034,-0.7785262050249097
3,4.044044044044044,-0.7566955320312521
3,4.054054054054054,-0.7504769394479905
3,4.064064064064064,-0.7236284137329798
3,4.074074074074074,-0.6780192430369136
3,4.084084084084084,-0.6341471012308265
3,4.094094094094094,-0.5776021394878086
3,4.104104104104104,-0.5204977737706203
3,4.114114114114114,-0.4481616575058334
3,4.124124124124124,-0.3719996089257008
3,4.134134134134134,-0.2898454201642467
3,4.1441441441441444,-0.19332534959695702
3,4.1541541541541545,-0.11682799181212708
3,4.1641641641641645,-0.02421073666897167
3,4.1741741741741745,0.05842524037072935
3,4.1841841841841845,0.15567320551450076
3,4.1941941941941945,0.25217821583621447
3,4.2042042042042045,0.3275725085712223
3,4.2142142142142145,0.4016400038583437
3,4.2242242242242245,0.4793695461199523
3,4.2342342342342345,0.5502378191862005
3,4.2442442442442445,0.6098007998213044
3,4.2542542542542545,0.6604899037509593
3,4.2642642642642645,0.7148144407627741
3,4.2742742742742745,0.7338827243963293
3,4.2842842842842845,0.7566381112448223
3,4.2942942942942945,0.7703315521395541
3,4.3043043043043046,0.7731801963231459
3,4.314314314314315,0.7782412819324306
3,4.324324324324325,0.7713721959779875
3,4.334334334334335,0.7469371885211488
3,4.344344344344345,0.7146132306243463
3,4.354354354354355,0.6869497660978421
3,4.364364364364365,0.6481411117690803
3,4.374374374374375,0.6006017816702528
3,4.384384384384385,0.5527338288224347
3,4.394394394394395,0.5111130840565543
3,4.404404404404405,0.45261585675354254
3,4.414414414414415,0.4081893930243551
3,4.424424424424425,0.355673435414912
3,4.434434434434435,0.30810909205359266
3,4.444444444444445,0.2640496035796489
3,4.454454454454455,0.21362779730890186
3,4.464464464464465,0.17713617326528008
3,4.474474474474475,0.14119424574615597
3,4.484484484484485,0.1041617011760728
3,4.494494494494495,0.07701629117046245
3,4.504504504504505,0.056684801892457747
3,4.514514514514515,0.042313376082484866
3,4.524524524524525,0.03116286197221241
3,4.534534534534535,0.021877742920105563
3,4.544544544544545,0.002569861541961087
3,4.554554554554555,0.006956523233463943
3,4.564564564564565,-0.0024220470643436486
3,4.574574574574575,0.0025275311307552967
3,4.584584584584585,0.0006751871321720445
3,4.594594594594595,-0.011571644132345349
3,4.604604604604605,-0.000690807851255452
3,4.614614614614615,0.0003133014111997845
3,4.624624624624625,-0.007862363894183102
3,4.634634634634635,-0.014195996724714896
3,4.644644644644645,-0.022649563883622437
3,4.654654654654655,-0.048849253253340934
3,4.664664664664665,-0.05851582773957566
3,4.674674674674675,-0.08673317601320187
3,4.684684684684685,-0.11024940053470632
3,4.694694694694695,-0.1555026952746095
3,4.704704704704705,-0.19045553775957053
3,4.714714714714715,-0.2349552589339633
3,4.724724724724725,-0.2803080480023369
3,4.734734734734735,-0.32030243219250226
3,4.744744744744745,-0.36524711651940694
3,4.754754754754755,-0.42429571296165575
3,4.764764764764765,-0.4665801539259756
3,4.774774774774775,-0.515118004157938
3,4.784784784784785,-0.5713568557954076
3,4.794794794794795,-0.612343354794779
3,4.804804804804805,-0.6475499838066157
3,4.814814814814815,-0.6991310680902195
3,4.824824824824825,-0.7235286108133608
3,4.834834834834835,-0.751356410421392
3,4.844844844844845,-0.7721275256268062
3,4.854854854854855,-0.7791452424887013
3,4.864864864864865,-0.7759964902897518
3,4.874874874874875,-0.7747658221741359
3,4.884884884884885,-0.7570681858113486
3,4.894894894894895,-0.7359898343391433
3,4.904904904904905,-0.6918707302876964
3,4.914914914914915,-0.6387776845455679
3,4.924924924924925,-0.5957836169014356
3,4.934934934934935,-0.5356706014842214
3,4.944944944944945,-0.46915368231141347
3,4.954954954954955,-0.3907974880750781
3,4.964964964964965,-0.30816355361262454
3,4.974974974974975,-0.226402879751435
3,4.984984984984985,-0.13288002592541312
3,4.994994994994995,-0.03604470683079802
3,5.005005005005005,0.04550068572337813
3,5.015015015015015,0.1285848426665711
3,5.025025025025025,0.2185681450234862
3,5.035035035035035,0.30058785828396506
3,5.045045045045045,0.3934980651659889
3,5.055055055055055,0.46141706549347405
3,5.065065065065065,0.5378944809626708
3,5.075075075075075,0.59722395364632
3,5.085085085085085,0.6442041070794653
3,5.095095095095095,0.6926484564428689
3,5.105105105105105,0.7368174702665421
3,5.115115115115115,0.7523213050120081
3,5.125125125125125,0.7745514050610925
3,5.135135135135135,0.7721947301180435
3,5.145145145145145,0.7788405019261414
3,5.155155155155155,0.7635070369208001
3,5.165165165165165,0.7493512508683129
3,5.175175175175175,0.7210217953322514
3,5.185185185185185,0.6946010652718797
3,5.195195195195195,0.6562184655191035
3,5.205205205205205,0.6103737022882871
3,5.215215215215215,0.5689268500660731
3,5.225225225225225,0.5172897792753779
3,5.235235235235235,0.4628025068141754
3,5.245245245245245,0.4250585035032112
3,5.255255255255255,0.3669048366157145
3,5.265265265265265,0.31984991384065714
3,5.275275275275275,0.27045447129160044
3,5.285285285285285,0.2211559753758153
3,5.295295295295295,0.1818452365128173
3,5.305305305305305,0.1488100119566462
3,5.315315315315315,0.10875103005261966
3,5.325325325325325,0.08897579920116228
3,5.335335335335335,0.07054336500643149
3,5.345345345345345,0.04740948324535061
3,5.355355355355355,0.029205775505704842
3,5.365365365365365,0.016428115348086834
3,5.375375375375375,-0.00017897464375787875
3,5.385385385385385,-0.007729992012426674
3,5.395395395395395,-0.0005932082818972629
3,5.405405405405405,-0.0017577854443200397
3,5.415415415415415,-0.0013357529580779355
3,5.425425425425425,-0.00309605722010934
3,5.435435435435435,-0.0038290585519555158
3,5.445445445445445,-0.0021610165401221267
3,5.455455455455455,-0.013679062873168595
3,5.465465465465465,-0.0179515492565131
3,5.475475475475475,-0.02317901186275584
3,5.485485485485485,-0.04385161951304113
3,5.495495495495495,-0.061611180756763494
3,5.505505505505505,-0.07118117059017005
3,5.515515515515515,-0.10155347133406026
3,5.525525525525525,-0.14291314784666323
3,5.535535535535535,-0.1715307508631138
3,5.545545545545545,-0.2098886623585295
3,5.555555555555555,-0.25727945814458764
3,5.565565565565565,-0.31157510655794823
3,5.575575575575575,-0.35885398537507074
3,5.585585585585585,-0.4145765487576601
3,5.595595595595595,-0.4566662313392256
3,5.605605605605605,-0.49919529278443686
3,5.615615615615615,-0.5505429695224547
3,5.625625625625625,-0.6033075274571736
3,5.635635635635635,-0.6489491371212586
3,5.645645645645645,-0.6833224609065619
3,5.655655655655655,-0.708070052805995
3,5.665665665665665,-0.7523216477794956
3,5.675675675675675,-0.7650430115083225
3,5.685685685685685,-0.776387708768061
3,5.6956956956956954,-0.7752139832486489
3,5.7057057057057055,-0.7731969643275808
3,5.7157157157157155,-0.768277310509509
3,5.7257257257257255,-0.7383529579116463
3,5.7357357357357355,-0.7060545465866964
3,5.7457457457457455,-0.6578484967427876
3,5.7557557557557555,-0.6091970553829427
3,5.7657657657657655,-0.5569284603005282
3,5.7757757757757755,-0.47731736127657487
3,5.7857857857857855,-0.4047964827061095
3,5.7957957957957955,-0.324526385953499
3,5.8058058058058055,-0.23487644307824665
3,5.8158158158158155,-0.1656475052880662
3,5.8258258258258255,-0.07408896573509782
3,5.8358358358358355,0.021760837523722827
3,5.8458458458458455,0.10682545881573609
3,5.8558558558558556,0.20404282660984846
3,5.865865865865866,0.286535215742863
3,5.875875875875876,0.3679744913015771
3,5.885885885885886,0.4426082014138248
3,5.895895895895896,0.5223403197497127
3,5.905905905905906,0.5774056864338454
3,5.915915915915916,0.6366283256555764
3,5.925925925925926,0.6866954752997528
3,5.935935935935936,0.728876016541466
3,5.945945945945946,0.7486593098407436
3,5.955955955955956,0.7705718746814728
3,5.965965965965966,0.773833189527165
3,5.975975975975976,0.7887262530844503
3,5.985985985985986,0.7732193246261301
3,5.995995995995996,0.7555808321977898
3,6.006006006006006,0.7396023810587711
3,6.016016016016016,0.7029121692507296
3,6.026026026026026,0.6654303877195905
3,6.036036036036036,0.6327433360037031
3,6.046046046046046,0.5905702105900001
3,6.056056056056056,0.5349373626307208
3,6.066066066066066,0.4902952994229519
3,6.076076076076076,0.4340701625355907
3,6.086086086086086,0.3787454041603433
3,6.096096096096096,0.33180836004164804
3,6.106106106106106,0.2772457352528287
3,6.116116116116116,0.2387934267719698
3,6.126126126126126,0.19445586846973298
3,6.136136136136136,0.15221296204848814
3,6.146146146146146,0.12038303288370528
3,6.156156156156156,0.08893462217079583
3,6.166166166166166,0.0714860057633794
3,6.176176176176176,0.04268633395915013
3,6.186186186186186,0.02322630471653724
3,6.196196196196196,0.024470346708186406
3,6.206206206206206,0.011535158111495926
3,6.216216216216216,0.0037832944444068962
3,6.226226226226226,-0.004669855364599053
3,6.236236236236236,0.009061978222776454
3,6.246246246246246,0.0034793408936779225
3,6.256256256256256,-0.006158018460569127
3,6.266266266266266,-0.0008418202324276221
3,6.276276276276276,-0.00329758844617134
3,6.286286286286286,-0.008974406687253914
3,6.296296296296296,-0.008658758024516083
3,6.306306306306306,-0.023269170753571555
3,6.316316316316316,-0.03975382561185371
3,6.326326326326326,-0.06380001470614377
3,6.336336336336336,-0.09032398367095335
3,6.346346346346346,-0.09879341855557613
3,6.356356356356356,-0.14212667719094593
3,6.366366366366366,-0.16201727672299873
3,6.376376376376376,-0.20189527213624572
3,6.386386386386386,-0.25441999278313654
3,6.396396396396396,-0.2960475678495338
3,6.406406406406406,-0.33872092160315603
3,6.416416416416417,-0.4010392613307471
3,6.426426426426427,-0.44196587609865423
3,6.436436436436437,-0.49592755108176445
3,6.446446446446447,-0.5403184841838355
3,6.456456456456457,-0.5902940690989198
3,6.466466466466467,-0.63168835846712
3,6.476476476476477,-0.6723910955123842
3,6.486486486486487,-0.7095450633546646
3,6.496496496496497,-0.7315189461333715
3,6.506506506506507,-0.7615841771761843
3,6.516516516516517,-0.7748078301069341
3,6.526526526526527,-0.773401393925653
3,6.536536536536537,-0.778912786787791
3,6.546546546546547,-0.7640708466691971
3,6.556556556556557,-0.7420748447006853
3,6.566566566566567,-0.7096126637159361
3,6.576576576576577,-0.6795634972265568
3,6.586586586586587,-0.6218520169553947
3,6.596596596596597,-0.5566186852366677
3,6.606606606606607,-0.4920195407035998
3,6.616616616616617,-0.4190120956267661
3,6.626626626626627,-0.35222091059223587
3,6.636636636636637,-0.2611294753457456
3,6.646646646646647,-0.17920926020492173
3,6.656656656656657,-0.0955970078078903
3,6.666666666666667,-0.01002897850722129
3,6.676676676676677,0.08342176580794822
3,6.686686686686687,0.18184375281774953
3,6.696696696696697,0.2742743763665762
3,6.706706706706707,0.35403833936611484
3,6.716716716716717,0.4308617762933258
3,6.726726726726727,0.496428858718619
3,6.736736736736737,0.5703938737430688
3,6.746746746746747,0.6255670918447923
3,6.756756756756757,0.6642759325426326
3,6.766766766766767,0.7139474927538834
3,6.776776776776777,0.7456869261285598
3,6.786786786786787,0.7695260846086012
3,6.796796796796797,0.7723093465894993
3,6.806806806806807,0.7818559766713222
3,6.816816816816817,0.7740080009367198
3,6.826826826826827,0.7583800908149961
3,6.836836836836837,0.7358759502024075
3,6.846846846846847,0.7177054077728621
3,6.856856856856857,0.6716968900816092
3,6.866866866866867,0.6354438446654924
3,6.876876876876877,0.5945034866664224
3,6.886886886886887,0.5476484482038079
3,6.896896896896897,0.49242774641329146
3,6.906906906906907,0.4431838531681782
3,6.916916916916917,0.3912378347631259
3,6.926926926926927,0.34583504593421505
3,6.936936936936937,0.2932814854535261
3,6.946946946946947,0.2506424831983794
3,6.956956956956957,0.2076071900804645
3,6.966966966966967,0.17674863175809954
3,6.976976976976977,0.13233754298489764
3,6.986986986986987,0.09863060204611986
3,6.996996996996997,0.082123485283356
3,7.007007007007007,0.05160242442236927
3,7.017017017017017,0.03799648396804639
3,7.027027027027027,0.030660156992928695
3,7.037037037037037,0.01059542389023975
3,7.047047047047047,0.013730844402228774
3,7.057057057057057,-0.006525395911048788
3,7.067067067067067,-0.007671664118298732
3,7.077077077077077,-0.001692675944126525
3,7.087087087087087,0.0006473171207265262
3,7.097097097097097,-0.00018731462675598403
3,7.107107107107107,-0.0028253671057083384
3,7.117117117117117,-0.010508987445173973
3,7.127127127127127,-0.013793541754321254
3,7.137137137137137,-0.016566001038437764
3,7.147147147147147,-0.03379532787361258
3,7.157157157157157,-0.04104161926553071
3,7.167167167167167,-0.0684253053137937
3,7.177177177177177,-0.08972140807906005
3,7.187187187187187,-0.12023431255404703
3,7.197197197197197,-0.1560740993295805
3,7.207207207207207,-0.18833912161899338
3,7.217217217217217,-0.2406680784465136
3,7.227227227227227,-0.28211173784927795
3,7.237237237237237,-0.3236676980525795
3,7.247247247247247,-0.38491605532211487
3,7.257257257257257,-0.429859755619878
3,7.267267267267267,-0.48729468925120756
3,7.277277277277277,-0.5346955092110145
3,7.287287287287287,-0.5728213587579165
3,7.297297297297297,-0.6213981177977641
3,7.307307307307307,-0.6668179592559087
3,7.317317317317317,-0.7056134002847073
3,7.327327327327327,-0.7416778001871294
3,7.337337337337337,-0.7580245188396273
3,7.347347347347347,-0.7802031717293528
3,7.357357357357357,-0.7821438910483856
3,7.367367367367367,-0.7791065599772504
3,7.377377377377377,-0.762839936002541
3,7.387387387387387,-0.7469254135386888
3,7.397397397397397,-0.7158548775317316
3,7.407407407407407,-0.6843122908696438
3,7.4174174174174174,-0.630505492066974
3,7.4274274274274275,-0.5825651648467716
3,7.4374374374374375,-0.5141869306510031
3,7.4474474474474475,-0.4457651878573692
3,7.4574574574574575,-0.36667969750209944
3,7.4674674674674675,-0.2924712754335407
3,7.4774774774774775,-0.19776838833662463
3,7.4874874874874875,-0.11518447369598465
3,7.4974974974974975,-0.020007669620128798
3,7.5075075075075075,0.06473310673931908
3,7.5175175175175175,0.15017097442140984
3,7.5275275275275275,0.23770466324855608
3,7.5375375375375375,0.326793413303229
3,7.5475475475475475,0.41696044104061014
3,7.5575575575575575,0.4803480638766466
3,7.5675675675675675,0.5497516885047016
3,7.5775775775775776,0.620278110080804
3,7.587587587587588,0.662493751029051
3,7.597597597597598,0.7009156545063511
3,7.607607607607608,0.7393482151992465
3,7.617617617617618,0.7631416150871713
3,7.627627627627628,0.7748191969304336
3,7.637637637637638,0.780105676407685
3,7.647647647647648,0.7760260435386461
3,7.657657657657658,0.763585234442944
3,7.667667667667668,0.7467851904319556
3,7.677677677677678,0.7149360795818275
3,7.687687687687688,0.6820993687487998
3,7.697697697697698,0.6430319556572324
3,7.707707707707708,0.6014292462088285
3,7.717717717717718,0.5624809943618521
3,7.727727727727728,0.5104868800239354
3,7.737737737737738,0.44943512478609604
3,7.747747747747748,0.3997844452534285
3,7.757757757757758,0.3510016459797452
3,7.767767767767768,0.29745653722033466
3,7.777777777777778,0.2648579732225217
3,7.787787787787788,0.21474764351361605
3,7.797797797797798,0.1750856944026403
3,7.807807807807808,0.14111423270291784
3,7.817817817817818,0.11540355232708202
3,7.827827827827828,0.0817793407222482
3,7.837837837837838,0.050853520161339115
3,7.847847847847848,0.04626345422653019
3,7.857857857857858,0.020793887099916253
3,7.867867867867868,0.01551072219103141
3,7.877877877877878,0.003270556985040837
3,7.887887887887888,0.0018231766068335226
3,7.897897897897898,0.0030541741496038703
3,7.907907907907908,0.00444524551311658
3,7.917917917917918,-0.004799727454556846
3,7.927927927927928,-0.0024170656990770154
3,7.937937937937938,0.004276354840040422
3,7.947947947947948,-0.0015201295816112477
3,7.957957957957958,-0.009621922233148186
3,7.967967967967968,-0.010395633852066946
3,7.977977977977978,-0.03497337718765424
3,7.987987987987988,-0.04220897995007929
3,7.997997997997998,-0.06066815612983052
3,8.008008008008009,-0.08871083497317159
3,8.018018018018019,-0.12393009285004963
3,8.028028028028029,-0.1598235326501292
3,8.038038038038039,-0.1865223873527539
3,8.048048048048049,-0.22446457791226757
3,8.058058058058059,-0.28251882218133895
3,8.068068068068069,-0.3183984870789147
3,8.078078078078079,-0.3692418248001991
3,8.088088088088089,-0.42028660375332944
3,8.098098098098099,-0.4668384444274774
3,8.108108108108109,-0.5198962114920697
3,8.118118118118119,-0.5691495932852252
3,8.128128128128129,-0.6240229595470607
3,8.138138138138139,-0.6556313225299961
3,8.148148148148149,-0.69490753245785
3,8.158158158158159,-0.7262206249682973
3,8.168168168168169,-0.7495948608057897
3,8.178178178178179,-0.771808658532681
3,8.188188188188189,-0.7802357214081312
3,8.198198198198199,-0.7891216957749418
3,8.208208208208209,-0.7692712982215102
3,8.218218218218219,-0.7571129172135855
3,8.228228228228229,-0.7274649246968764
3,8.238238238238239,-0.6947683856438218
3,8.248248248248249,-0.6339460375987416
3,8.258258258258259,-0.5946967246670319
3,8.268268268268269,-0.5348566472902203
3,8.278278278278279,-0.4612501883381115
3,8.288288288288289,-0.39034612441135164
3,8.298298298298299,-0.305914678733893
3,8.308308308308309,-0.22739636529364043
3,8.318318318318319,-0.1224594271373354
3,8.328328328328329,-0.04586545460645547
3,8.338338338338339,0.050876828268543665
3,8.348348348348349,0.13772862504785002
3,8.358358358358359,0.21248135180521888
3,8.368368368368369,0.30953373494805786
3,8.378378378378379,0.3928502353422831
3,8.388388388388389,0.4618564362844145
3,8.398398398398399,0.5342986701344349
3,8.408408408408409,0.5980311961319751
3,8.418418418418419,0.6406006334566304
3,8.428428428428429,0.6821760097285853
3,8.438438438438439,0.7303742871977421
3,8.448448448448449,0.7544031047290606
3,8.458458458458459,0.772449778092687
3,8.468468468468469,0.7762939715741631
3,8.478478478478479,0.7848860993176477
3,8.488488488488489,0.7706194501732195
3,8.498498498498499,0.7511371281258368
3,8.508508508508509,0.7234865028537172
3,8.518518518518519,0.7011407022605136
3,8.528528528528529,0.6609224276793497
3,8.538538538538539,0.6096829387538467
3,8.548548548548549,0.5751020843150733
3,8.558558558558559,0.5220639423176262
3,8.568568568568569,0.4748681201114727
3,8.578578578578579,0.41119547714223303
3,8.588588588588589,0.3671668080241884
3,8.598598598598599,0.3229885315295583
3,8.608608608608609,0.26681218675061186
3,8.618618618618619,0.23232711990805338
3,8.62862862862863,0.18390185977612453
3,8.63863863863864,0.1454748261991497
3,8.64864864864865,0.11509312277483554
3,8.65865865865866,0.08053331603639147
3,8.66866866866867,0.05739715529690189
3,8.67867867867868,0.04465628055747833
3,8.68868868868869,0.027554337474299456
3,8.6986986986987,0.021457878320123545
3,8.70870870870871,0.009282624287488252
3,8.71871871871872,-0.0003194323653013696
3,8.72872872872873,-0.0043938110152817005
3,8.73873873873874,-0.0006526230391063208
3,8.74874874874875,-0.004548712294055984
3,8.75875875875876,-0.0046891298232273155
3,8.76876876876877,-0.00166521280435571
3,8.77877877877878,-0.0003898694030198039
3,8.78878878878879,-0.01627062050800385
3,8.7987987987988,-0.021432952727282156
3,8.80880880880881,-0.028460622706578415
3,8.81881881881882,-0.034663430280919
3,8.82882882882883,-0.05607429937977468
3,8.83883883883884,-0.07497445860123515
3,8.84884884884885,-0.11275066177927996
3,8.85885885885886,-0.14658037311485972
3,8.86886886886887,-0.1799756688990431
3,8.87887887887888,-0.22198324304175188
3,8.88888888888889,-0.26333683122364
3,8.8988988988989,-0.3055770564512889
3,8.90890890890891,-0.3589099698411131
3,8.91891891891892,-0.4062643290078008
3,8.92892892892893,-0.46725347709720555
3,8.93893893893894,-0.5080205171640131
3,8.94894894894895,-0.5585599252138288
3,8.95895895895896,-0.5995124986500354
3,8.96896896896897,-0.6326429411495845
3,8.97897897897898,-0.6930382526177417
3,8.98898898898899,-0.7171021784995621
3,8.998998998999,-0.7333535481591819
3,9.00900900900901,-0.7564069228127506
3,9.01901901901902,-0.7764411307617082
3,9.02902902902903,-0.7826036831015095
3,9.03903903903904,-0.7768033110062617
3,9.04904904904905,-0.7615741541736504
3,9.05905905905906,-0.7345848442269409
3,9.06906906906907,-0.7019762730623855
3,9.07907907907908,-0.654292552813659
3,9.08908908908909,-0.6089275719181767
3,9.0990990990991,-0.5528668761267712
3,9.10910910910911,-0.4795396688933125
3,9.11911911911912,-0.4087590465845486
3,9.12912912912913,-0.3382728687089111
3,9.13913913913914,-0.23935601515334598
3,9.14914914914915,-0.16366100581797927
3,9.15915915915916,-0.06591369759277878
3,9.16916916916917,0.008230106552211463
3,9.17917917917918,0.11160952498239164
3,9.18918918918919,0.1999432225673788
3,9.1991991991992,0.2872480275327798
3,9.20920920920921,0.37299904976190246
3,9.21921921921922,0.4419035092395563
3,9.22922922922923,0.5051962708354123
3,9.23923923923924,0.5769509788615912
3,9.24924924924925,0.6363357645958779
3,9.25925925925926,0.6845981895886983
3,9.26926926926927,0.7195840872277296
3,9.27927927927928,0.7546885077863558
3,9.28928928928929,0.7682326726119534
3,9.2992992992993,0.7668920227847019
3,9.30930930930931,0.7781614622815163
3,9.31931931931932,0.7697333377009035
3,9.32932932932933,0.7578224761550458
3,9.33933933933934,0.7301205917972664
3,9.34934934934935,0.699564780297361
3,9.35935935935936,0.6578165467470433
3,9.36936936936937,0.6236704606016619
3,9.37937937937938,0.5772651156073517
3,9.38938938938939,0.5357838121642234
3,9.3993993993994,0.4864131275929568
3,9.40940940940941,0.432667996352827
3,9.41941941941942,0.38340172150426816
3,9.42942942942943,0.3267836008283003
3,9.43943943943944,0.2811373817231771
3,9.44944944944945,0.2423512547323609
3,9.45945945945946,0.1974128449189493
3,9.46946946946947,0.16243365403304366
3,9.47947947947948,0.1282355970469579
3,9.48948948948949,0.10479867334956261
3,9.4994994994995,0.06157785418409971
3,9.50950950950951,0.04685844669969149
3,9.51951951951952,0.030057947550204106
3,9.52952952952953,0.024124617956188896
3,9.53953953953954,-0.0010288979197477406
3,9.54954954954955,0.0074961668831685
3,9.55955955955956,7.750474675261845e-05
3,9.56956956956957,-0.00363412801478277
3,9.57957957957958,-0.0006327315044983757
3,9.58958958958959,0.0072345195770992
3,9.5995995995996,-0.001985738188265627
3,9.60960960960961,-0.0029931036747255883
3,9.61961961961962,-0.003197343335698874
3,9.62962962962963,-0.0030603383094916937
3,9.63963963963964,-0.020560439749165646
3,9.64964964964965,-0.029184044773456284
3,9.65965965965966,-0.04885477701690825
3,9.66966966966967,-0.0743001962586113
3,9.67967967967968,-0.10416531630091666
3,9.68968968968969,-0.13997198041692266
3,9.6996996996997,-0.16558037640885517
3,9.70970970970971,-0.20525353291062742
3,9.71971971971972,-0.24429890377971106
3,9.72972972972973,-0.2976419949877574
3,9.73973973973974,-0.3427496422259409
3,9.74974974974975,-0.40142714210345887
3,9.75975975975976,-0.44375567315487435
3,9.76976976976977,-0.496452836661497
3,9.77977977977978,-0.5475694094108488
3,9.78978978978979,-0.5883930128047116
3,9.7997997997998,-0.6401834641184453
3,9.80980980980981,-0.674519043594243
3,9.81981981981982,-0.7095340406254691
3,9.82982982982983,-0.7382229517274832
3,9.83983983983984,-0.7641743215637441
3,9.84984984984985,-0.7692967036602589
3,9.85985985985986,-0.7693530155288526
3,9.86986986986987,-0.7763427461644586
3,9.87987987987988,-0.7656699858065185
3,9.88988988988989,-0.746202793490838
3,9.8998998998999,-0.7052096510819795
3,9.90990990990991,-0.6749430478589575
3,9.91991991991992,-0.6278697087866973
3,9.92992992992993,-0.5567369470119508
3,9.93993993993994,-0.49969345124862224
3,9.94994994994995,-0.425327181762505
3,9.95995995995996,-0.3458929951722769
3,9.96996996996997,-0.25946133065814536
3,9.97997997997998,-0.17347836804905417
3,9.98998998998999,-0.0887669729223772
3,10.0,-0.0032797624470904834
