Subject_ID,Time,PPG
15,0.0,-0.0013184207984805922
15,0.01001001001001001,0.09322234412572061
15,0.02002002002002002,0.1714372319048039
15,0.03003003003003003,0.26058319264838115
15,0.04004004004004004,0.3525278980283227
15,0.050050050050050046,0.43101729788609655
15,0.06006006006006006,0.5038295680115058
15,0.07007007007007007,0.5558095660603158
15,0.08008008008008008,0.6173143306085447
15,0.09009009009009009,0.6797282610542495
15,0.10010010010010009,0.7057237856474878
15,0.11011011011011011,0.742713010817548
15,0.12012012012012012,0.7709075395275381
15,0.13013013013013014,0.777857633300255
15,0.14014014014014015,0.7873683920594557
15,0.15015015015015015,0.7785944752741687
15,0.16016016016016016,0.7583421786713422
15,0.17017017017017017,0.7372684738060716
15,0.18018018018018017,0.7053246046132384
15,0.19019019019019018,0.676829166088026
15,0.20020020020020018,0.6364633671857347
15,0.21021021021021022,0.5836080439048197
15,0.22022022022022023,0.5514642322456419
15,0.23023023023023023,0.48664983368301246
15,0.24024024024024024,0.4326419997797699
15,0.2502502502502503,0.39133428762740685
15,0.2602602602602603,0.34090771573284123
15,0.2702702702702703,0.2882497513967083
15,0.2802802802802803,0.24902584165080582
15,0.2902902902902903,0.21030627459697962
15,0.3003003003003003,0.16564099599154097
15,0.3103103103103103,0.1351580653421918
15,0.3203203203203203,0.10901684195875741
15,0.3303303303303303,0.07175409647144458
15,0.34034034034034033,0.05369793702458938
15,0.35035035035035034,0.0372228192141166
15,0.36036036036036034,0.01856720018287722
15,0.37037037037037035,0.009577735150563729
15,0.38038038038038036,0.006222061609489715
15,0.39039039039039036,-0.002687085399802799
15,0.40040040040040037,0.003697717875036973
15,0.41041041041041043,-0.001182238253662956
15,0.42042042042042044,-0.006340659784373518
15,0.43043043043043044,0.007031176427878526
15,0.44044044044044045,-0.0021332541733258747
15,0.45045045045045046,-0.0005490780520465127
15,0.46046046046046046,-0.004279516731629498
15,0.47047047047047047,-0.02459659189279685
15,0.4804804804804805,-0.029527109693649207
15,0.4904904904904905,-0.05041672060638336
15,0.5005005005005005,-0.07569463369305886
15,0.5105105105105106,-0.09703040386240418
15,0.5205205205205206,-0.12685771965646908
15,0.5305305305305306,-0.16318624511159086
15,0.5405405405405406,-0.19774443838956143
15,0.5505505505505506,-0.23391370827108704
15,0.5605605605605606,-0.2768966229381043
15,0.5705705705705706,-0.3324632586369885
15,0.5805805805805806,-0.38525468311023736
15,0.5905905905905906,-0.43717940006040157
15,0.6006006006006006,-0.480937589371899
15,0.6106106106106106,-0.5359641193573157
15,0.6206206206206206,-0.5788679576302843
15,0.6306306306306306,-0.6241571958882407
15,0.6406406406406406,-0.6714163357496326
15,0.6506506506506506,-0.7006034398178255
15,0.6606606606606606,-0.7324926947519542
15,0.6706706706706707,-0.7498369697353598
15,0.6806806806806807,-0.7757230567570994
15,0.6906906906906907,-0.7714390722976912
15,0.7007007007007007,-0.7726770208956414
15,0.7107107107107107,-0.75440118592082
15,0.7207207207207207,-0.7492780908767899
15,0.7307307307307307,-0.7238012143903265
15,0.7407407407407407,-0.6848267693876168
15,0.7507507507507507,-0.6372018226158164
15,0.7607607607607607,-0.5781247830121247
15,0.7707707707707707,-0.520357953921012
15,0.7807807807807807,-0.4364091633036658
15,0.7907907907907907,-0.3739557582812332
15,0.8008008008008007,-0.2852156065410491
15,0.8108108108108109,-0.2000698758914912
15,0.8208208208208209,-0.11602142863241822
15,0.8308308308308309,-0.02458444012787622
15,0.8408408408408409,0.07287741931419997
15,0.8508508508508509,0.16649552532323664
15,0.8608608608608609,0.2476863892443401
15,0.8708708708708709,0.31958556239787217
15,0.8808808808808809,0.41013702735812
15,0.8908908908908909,0.4802243185027636
15,0.9009009009009009,0.5502266151227854
15,0.9109109109109109,0.612572951218179
15,0.9209209209209209,0.6679894393549529
15,0.9309309309309309,0.7019591951132717
15,0.9409409409409409,0.736739593060529
15,0.950950950950951,0.7513415080962519
15,0.960960960960961,0.7733113017574568
15,0.970970970970971,0.7765397437330929
15,0.980980980980981,0.7719104817171554
15,0.990990990990991,0.7623551134225114
15,1.001001001001001,0.7477828615561224
15,1.011011011011011,0.7191162990098313
15,1.021021021021021,0.6855100374082777
15,1.031031031031031,0.6485804309324479
15,1.0410410410410411,0.610273290255337
15,1.0510510510510511,0.552420007984725
15,1.0610610610610611,0.5150147743128334
15,1.0710710710710711,0.45397146516535736
15,1.0810810810810811,0.4105653102530824
15,1.0910910910910911,0.3525361560046504
15,1.1011011011011012,0.30592062715924984
15,1.1111111111111112,0.26313670249402105
15,1.1211211211211212,0.20872529400116846
15,1.1311311311311312,0.1750198539648676
15,1.1411411411411412,0.1493646262884278
15,1.1511511511511512,0.10572592743387442
15,1.1611611611611612,0.08133924831972784
15,1.1711711711711712,0.0608297852330533
15,1.1811811811811812,0.03514861639047926
15,1.1911911911911912,0.018133485879230582
15,1.2012012012012012,0.013762110561949856
15,1.2112112112112112,0.0030384649406378994
15,1.2212212212212212,0.008627329022908062
15,1.2312312312312312,0.006354627230820376
15,1.2412412412412412,-0.003868161033746909
15,1.2512512512512513,-0.0007788081889600533
15,1.2612612612612613,-0.0033568760338815377
15,1.2712712712712713,0.0023640169214622455
15,1.2812812812812813,-0.0028435328876313098
15,1.2912912912912913,-0.006106502696090795
15,1.3013013013013013,-0.015852400441676955
15,1.3113113113113113,-0.022262303798225896
15,1.3213213213213213,-0.03540209374135842
15,1.3313313313313313,-0.06346125435197399
15,1.3413413413413413,-0.08624985118577817
15,1.3513513513513513,-0.11428081146528134
15,1.3613613613613613,-0.15412135076842948
15,1.3713713713713713,-0.18086206642651162
15,1.3813813813813813,-0.2183334732535123
15,1.3913913913913913,-0.2688160515721701
15,1.4014014014014013,-0.32022027433832817
15,1.4114114114114114,-0.36016776122296307
15,1.4214214214214214,-0.41063748880246714
15,1.4314314314314314,-0.4717701653931278
15,1.4414414414414414,-0.5308282499724722
15,1.4514514514514514,-0.5599374039223982
15,1.4614614614614614,-0.6188891996851233
15,1.4714714714714714,-0.6470918861900603
15,1.4814814814814814,-0.690019285330964
15,1.4914914914914914,-0.7219257146939013
15,1.5015015015015014,-0.7551093447564844
15,1.5115115115115114,-0.7589584965631876
15,1.5215215215215214,-0.7809767226902152
15,1.5315315315315314,-0.773341262339756
15,1.5415415415415414,-0.7684042346087974
15,1.5515515515515514,-0.755231746831336
15,1.5615615615615615,-0.7283667871059805
15,1.5715715715715715,-0.6869537984370461
15,1.5815815815815815,-0.643199836118778
15,1.5915915915915915,-0.5875835335401023
15,1.6016016016016015,-0.527717475907286
15,1.6116116116116117,-0.4648678729411912
15,1.6216216216216217,-0.3887039222688021
15,1.6316316316316317,-0.3075703011414088
15,1.6416416416416417,-0.231723345983048
15,1.6516516516516517,-0.13311002714789688
15,1.6616616616616617,-0.04100302451896983
15,1.6716716716716717,0.047655907347693545
15,1.6816816816816818,0.13118880421909113
15,1.6916916916916918,0.22464822441276958
15,1.7017017017017018,0.30977864474565464
15,1.7117117117117118,0.39819590987807396
15,1.7217217217217218,0.4675378707249527
15,1.7317317317317318,0.5246033602909264
15,1.7417417417417418,0.5978446191295705
15,1.7517517517517518,0.6411803146427116
15,1.7617617617617618,0.6999708375590994
15,1.7717717717717718,0.7388335385446423
15,1.7817817817817818,0.7512510436854887
15,1.7917917917917918,0.7625850809394865
15,1.8018018018018018,0.7792852040402831
15,1.8118118118118118,0.7838434774299715
15,1.8218218218218218,0.762109195280373
15,1.8318318318318318,0.7502617356344573
15,1.8418418418418419,0.7202835603350392
15,1.8518518518518519,0.6895217725942215
15,1.8618618618618619,0.6584343217575397
15,1.8718718718718719,0.6145358969540132
15,1.8818818818818819,0.5584537361265258
15,1.8918918918918919,0.5255378208405965
15,1.901901901901902,0.4715672355308041
15,1.911911911911912,0.42094624348185883
15,1.921921921921922,0.37129191495413466
15,1.931931931931932,0.3152646890897934
15,1.941941941941942,0.27136037353790454
15,1.951951951951952,0.23457568481255547
15,1.961961961961962,0.18654189830591408
15,1.971971971971972,0.1463013613533123
15,1.981981981981982,0.12461084124182414
15,1.991991991991992,0.0926609589274189
15,2.002002002002002,0.0651447298853862
15,2.012012012012012,0.04867848870248073
15,2.022022022022022,0.03296272038049798
15,2.032032032032032,0.013075961219790478
15,2.042042042042042,0.010006937010988377
15,2.052052052052052,0.012507114542511006
15,2.062062062062062,-0.001488897651179565
15,2.0720720720720722,-0.0054315954199793785
15,2.0820820820820822,0.007535708863827709
15,2.0920920920920922,0.007053290667521907
15,2.1021021021021022,0.006733097478822229
15,2.1121121121121122,-0.017664567345299823
15,2.1221221221221223,-0.00989742432402168
15,2.1321321321321323,-0.016637639383308478
15,2.1421421421421423,-0.030119828457601756
15,2.1521521521521523,-0.034929626577440635
15,2.1621621621621623,-0.05421887891086778
15,2.1721721721721723,-0.08252162446580144
15,2.1821821821821823,-0.1067674504887795
15,2.1921921921921923,-0.1397491607976608
15,2.2022022022022023,-0.18374401286229727
15,2.2122122122122123,-0.21357804819976978
15,2.2222222222222223,-0.2592856169147842
15,2.2322322322322323,-0.30985091501372397
15,2.2422422422422423,-0.35280853426545333
15,2.2522522522522523,-0.39609651517020683
15,2.2622622622622623,-0.4463832898876873
15,2.2722722722722724,-0.5108243962665124
15,2.2822822822822824,-0.5583136203995916
15,2.2922922922922924,-0.59423335022672
15,2.3023023023023024,-0.6461827886990911
15,2.3123123123123124,-0.6874335894485774
15,2.3223223223223224,-0.711976919731178
15,2.3323323323323324,-0.7459080086291119
15,2.3423423423423424,-0.7589783244339848
15,2.3523523523523524,-0.7704219415631133
15,2.3623623623623624,-0.7789648712021423
15,2.3723723723723724,-0.7755913042492939
15,2.3823823823823824,-0.7515866804730059
15,2.3923923923923924,-0.7355068432656341
15,2.4024024024024024,-0.6997212063635738
15,2.4124124124124124,-0.6593552326026989
15,2.4224224224224224,-0.6124782306190384
15,2.4324324324324325,-0.5499207678863859
15,2.4424424424424425,-0.48577100757332536
15,2.4524524524524525,-0.39903295448556503
15,2.4624624624624625,-0.32799984802612264
15,2.4724724724724725,-0.24827121950738837
15,2.4824824824824825,-0.15509915016076228
15,2.4924924924924925,-0.05860431662443225
15,2.5025025025025025,0.021095233294084737
15,2.5125125125125125,0.11204665105820548
15,2.5225225225225225,0.2078297827021796
15,2.5325325325325325,0.29080978876592845
15,2.5425425425425425,0.3673523374765771
15,2.5525525525525525,0.45410191889973056
15,2.5625625625625625,0.5091971123597696
15,2.5725725725725725,0.5801000058888631
15,2.5825825825825826,0.6335501491712215
15,2.5925925925925926,0.6763516767514199
15,2.6026026026026026,0.7247336700167276
15,2.6126126126126126,0.7495738810550323
15,2.6226226226226226,0.7644047288359892
15,2.6326326326326326,0.7866371413340117
15,2.6426426426426426,0.7787768237885409
15,2.6526526526526526,0.7742528271722582
15,2.6626626626626626,0.753155986105726
15,2.6726726726726726,0.7292825832656806
15,2.6826826826826826,0.7036402195745862
15,2.6926926926926926,0.6690044343803316
15,2.7027027027027026,0.6199931143925512
15,2.7127127127127126,0.5837234698715689
15,2.7227227227227226,0.5244671183300517
15,2.7327327327327327,0.4766171343654337
15,2.7427427427427427,0.44418347741349135
15,2.7527527527527527,0.3834394013103029
15,2.7627627627627627,0.33222122076293126
15,2.7727727727727727,0.27420399833367703
15,2.7827827827827827,0.23724410186846115
15,2.7927927927927927,0.19149428900409426
15,2.8028028028028027,0.16323389521369508
15,2.8128128128128127,0.12975825065866844
15,2.8228228228228227,0.0986627645430379
15,2.8328328328328327,0.07492656804781217
15,2.8428428428428427,0.044921365647452256
15,2.8528528528528527,0.03446452999465354
15,2.8628628628628627,0.011388759988896524
15,2.8728728728728727,0.007572951029914068
15,2.8828828828828827,0.004816359789999554
15,2.8928928928928928,0.0008403851152955237
15,2.9029029029029028,0.0014868296869393982
15,2.9129129129129128,0.007775468987017508
15,2.9229229229229228,0.005629984435772287
15,2.932932932932933,0.0008953803457393823
15,2.942942942942943,-0.0035807566729103533
15,2.952952952952953,-0.006238327032806554
15,2.962962962962963,-0.007565807671953684
15,2.972972972972973,-0.023890816360772497
15,2.982982982982983,-0.03928708227768737
15,2.992992992992993,-0.05392667664669214
15,3.003003003003003,-0.06685931128163931
15,3.013013013013013,-0.10487465841543023
15,3.023023023023023,-0.1351441187446618
15,3.033033033033033,-0.1678134808407912
15,3.043043043043043,-0.20392545428994213
15,3.053053053053053,-0.25388639213734454
15,3.063063063063063,-0.29617136586529824
15,3.073073073073073,-0.34378495852834856
15,3.083083083083083,-0.39880905012518525
15,3.093093093093093,-0.4399541467962905
15,3.103103103103103,-0.48748027630785856
15,3.113113113113113,-0.5471415032026717
15,3.123123123123123,-0.5930752539733248
15,3.133133133133133,-0.6336395312880331
15,3.143143143143143,-0.6818630552253185
15,3.153153153153153,-0.7143549069234345
15,3.163163163163163,-0.7332864342791198
15,3.173173173173173,-0.7629166492453687
15,3.183183183183183,-0.7778514399353895
15,3.193193193193193,-0.775441445650785
15,3.203203203203203,-0.778718066260338
15,3.2132132132132134,-0.7659934999680892
15,3.2232232232232234,-0.7410160914851336
15,3.2332332332332334,-0.7210762489344077
15,3.2432432432432434,-0.6636069617928086
15,3.2532532532532534,-0.6194968554833431
15,3.2632632632632634,-0.5613357713677877
15,3.2732732732732734,-0.49976612340362214
15,3.2832832832832834,-0.4281293735415501
15,3.2932932932932935,-0.34700116103377543
15,3.3033033033033035,-0.26482246960301803
15,3.3133133133133135,-0.18403142398253106
15,3.3233233233233235,-0.09665611145051255
15,3.3333333333333335,0.0075718037234249295
15,3.3433433433433435,0.09230071333589716
15,3.3533533533533535,0.17831704453814232
15,3.3633633633633635,0.25842091109626114
15,3.3733733733733735,0.3561210646514922
15,3.3833833833833835,0.43032414823967596
15,3.3933933933933935,0.4997546694874375
15,3.4034034034034035,0.5655790232370437
15,3.4134134134134135,0.6171249691235744
15,3.4234234234234235,0.6750978749867889
15,3.4334334334334335,0.7071587584232757
15,3.4434434434434436,0.7371395030596893
15,3.4534534534534536,0.7647391284104015
15,3.4634634634634636,0.7737173459143494
15,3.4734734734734736,0.7810474534538449
15,3.4834834834834836,0.7753436900416201
15,3.4934934934934936,0.7560088613518724
15,3.5035035035035036,0.7339265028013857
15,3.5135135135135136,0.7092443105187002
15,3.5235235235235236,0.682389566821235
15,3.5335335335335336,0.6398229885997396
15,3.5435435435435436,0.5980113515185332
15,3.5535535535535536,0.5389609808832306
15,3.5635635635635636,0.4903214912522461
15,3.5735735735735736,0.4375150269754843
15,3.5835835835835836,0.3907827285350616
15,3.5935935935935936,0.3378719851749718
15,3.6036036036036037,0.28438631954074084
15,3.6136136136136137,0.23851574479556278
15,3.6236236236236237,0.20320136322393953
15,3.6336336336336337,0.1613394117825105
15,3.6436436436436437,0.13632003135053822
15,3.6536536536536537,0.0972068747645712
15,3.6636636636636637,0.07521141224412906
15,3.6736736736736737,0.04972800247736217
15,3.6836836836836837,0.029812392419324193
15,3.6936936936936937,0.02304715732304544
15,3.7037037037037037,0.020904253388077755
15,3.7137137137137137,0.006022374468122789
15,3.7237237237237237,-0.0005824389675046192
15,3.7337337337337337,0.005617460743531372
15,3.7437437437437437,-0.003131002729684282
15,3.7537537537537538,-0.00423466127149047
15,3.7637637637637638,0.0007726231474651658
15,3.7737737737737738,0.0005655163243150798
15,3.7837837837837838,-0.005492841259823748
15,3.793793793793794,-0.009138016997849767
15,3.803803803803804,-0.017957077995789727
15,3.813813813813814,-0.029585967444312425
15,3.823823823823824,-0.04610930426362707
15,3.833833833833834,-0.06460460152992648
15,3.843843843843844,-0.08675780085019393
15,3.853853853853854,-0.1295681416595973
15,3.863863863863864,-0.16356756346158863
15,3.873873873873874,-0.19542650388961952
15,3.883883883883884,-0.2397967165990187
15,3.893893893893894,-0.2739031125886465
15,3.903903903903904,-0.33597524497967474
15,3.913913913913914,-0.379627557488154
15,3.923923923923924,-0.4209442095207682
15,3.933933933933934,-0.4828323872059062
15,3.943943943943944,-0.5274222328548849
15,3.953953953953954,-0.5742387877146851
15,3.963963963963964,-0.6210400673325266
15,3.973973973973974,-0.6595823666069031
15,3.983983983983984,-0.6982750998943515
15,3.993993993993994,-0.7348373780089797
15,4.004004004004004,-0.7590143826741145
15,4.014014014014014,-0.7682332209247572
15,4.024024024024024,-0.7841903430803141
15,4.034034034034034,-0.7742853194164029
15,4.044044044044044,-0.7730354525486623
15,4.054054054054054,-0.7460540827549481
15,4.064064064064064,-0.7191334390728412
15,4.074074074074074,-0.6787685649970802
15,4.084084084084084,-0.6306604166586299
15,4.094094094094094,-0.5773486636028204
15,4.104104104104104,-0.5135947832947669
15,4.114114114114114,-0.44508790823804284
15,4.124124124124124,-0.37660965071320524
15,4.134134134134134,-0.29291361562191726
15,4.1441441441441444,-0.20210900688363057
15,4.1541541541541545,-0.10898151430943576
15,4.1641641641641645,-0.012220561072702979
15,4.1741741741741745,0.07084169534613896
15,4.1841841841841845,0.15310319695477304
15,4.1941941941941945,0.25408502934961874
15,4.2042042042042045,0.3287187837706751
15,4.2142142142142145,0.4013461959504246
15,4.2242242242242245,0.47559074806925417
15,4.2342342342342345,0.5495743066321925
15,4.2442442442442445,0.6043151646766148
15,4.2542542542542545,0.6552792265694243
15,4.2642642642642645,0.7009812362800689
15,4.2742742742742745,0.7326470521244902
15,4.2842842842842845,0.7561452639395062
15,4.2942942942942945,0.7693674458193144
15,4.3043043043043046,0.7754728433156967
15,4.314314314314315,0.7830452732377072
15,4.324324324324325,0.7619469755455588
15,4.334334334334335,0.7374532960859592
15,4.344344344344345,0.7189988895139277
15,4.354354354354355,0.6713301582573986
15,4.364364364364365,0.648897939648262
15,4.374374374374375,0.6072039357486892
15,4.384384384384385,0.5529927161972477
15,4.394394394394395,0.5119999885024185
15,4.404404404404405,0.45933433410179886
15,4.414414414414415,0.41658012583571064
15,4.424424424424425,0.35448724793887
15,4.434434434434435,0.31028261577712574
15,4.444444444444445,0.2579865096889855
15,4.454454454454455,0.22143401238154276
15,4.464464464464465,0.1757029566380499
15,4.474474474474475,0.1270248423111004
15,4.484484484484485,0.1049792398132754
15,4.494494494494495,0.0799772391004148
15,4.504504504504505,0.060230095632682785
15,4.514514514514515,0.03779727741996877
15,4.524524524524525,0.024097101970684296
15,4.534534534534535,0.01674794562994052
15,4.544544544544545,0.0117948577471742
15,4.554554554554555,0.008121215523495076
15,4.564564564564565,-0.008462768899045552
15,4.574574574574575,-0.007854494555526352
15,4.584584584584585,0.005762412956432886
15,4.594594594594595,0.006080956440097179
15,4.604604604604605,0.010569165281047212
15,4.614614614614615,0.0015247317811704847
15,4.624624624624625,-0.013970386100877499
15,4.634634634634635,-0.019024438064340905
15,4.644644644644645,-0.030606989834687504
15,4.654654654654655,-0.045347244615818454
15,4.664664664664665,-0.06499540520598956
15,4.674674674674675,-0.09020212111674805
15,4.684684684684685,-0.11089767702894246
15,4.694694694694695,-0.1477943846590506
15,4.704704704704705,-0.17691179396074072
15,4.714714714714715,-0.22779963444114693
15,4.724724724724725,-0.2724053371020301
15,4.734734734734735,-0.32120662730141447
15,4.744744744744745,-0.36151295746144063
15,4.754754754754755,-0.4262619860302401
15,4.764764764764765,-0.4708452796681601
15,4.774774774774775,-0.5197844156869491
15,4.784784784784785,-0.5662748032133805
15,4.794794794794795,-0.6048284091744841
15,4.804804804804805,-0.6549078880438668
15,4.814814814814815,-0.6983598263953354
15,4.824824824824825,-0.722395956400089
15,4.834834834834835,-0.7494805493731237
15,4.844844844844845,-0.7690181500474343
15,4.854854854854855,-0.778178102049838
15,4.864864864864865,-0.783171899657227
15,4.874874874874875,-0.774987702322744
15,4.884884884884885,-0.7541179821402731
15,4.894894894894895,-0.7325942474590079
15,4.904904904904905,-0.6871333754303419
15,4.914914914914915,-0.653181215348064
15,4.924924924924925,-0.5867421656833651
15,4.934934934934935,-0.5312273541651541
15,4.944944944944945,-0.4661814945637979
15,4.954954954954955,-0.38420312488253355
15,4.964964964964965,-0.3122844045812636
15,4.974974974974975,-0.2167501995070545
15,4.984984984984985,-0.13011509300073268
15,4.994994994994995,-0.0463461557768149
15,5.005005005005005,0.0457800212973064
15,5.015015015015015,0.14125617898371406
15,5.025025025025025,0.2221510565160754
15,5.035035035035035,0.3092920548775425
15,5.045045045045045,0.38725750776563383
15,5.055055055055055,0.4607203555755849
15,5.065065065065065,0.5281956063050091
15,5.075075075075075,0.5973959248200552
15,5.085085085085085,0.6385842132925826
15,5.095095095095095,0.6871174776935306
15,5.105105105105105,0.7267702629774583
15,5.115115115115115,0.7631406299827784
15,5.125125125125125,0.7792565354751345
15,5.135135135135135,0.7785852780246214
15,5.145145145145145,0.7818833321571791
15,5.155155155155155,0.7625012069126841
15,5.165165165165165,0.7442096007299437
15,5.175175175175175,0.7274162272794983
15,5.185185185185185,0.696974408693152
15,5.195195195195195,0.6539798737781788
15,5.205205205205205,0.6160973415625096
15,5.215215215215215,0.5706878232628858
15,5.225225225225225,0.5214279711455017
15,5.235235235235235,0.473615284615162
15,5.245245245245245,0.41592790879753927
15,5.255255255255255,0.3741481911514333
15,5.265265265265265,0.31509970920519026
15,5.275275275275275,0.26972543017268114
15,5.285285285285285,0.23324289070827578
15,5.295295295295295,0.18866155973828683
15,5.305305305305305,0.1505827869730523
15,5.315315315315315,0.11027232203108754
15,5.325325325325325,0.08570647044203578
15,5.335335335335335,0.06391514779130184
15,5.345345345345345,0.04235709329493062
15,5.355355355355355,0.028231291562377556
15,5.365365365365365,0.009235245271302976
15,5.375375375375375,0.018034467089508656
15,5.385385385385385,0.00045969781617931534
15,5.395395395395395,-0.002205185120029992
15,5.405405405405405,-0.0022996603633040737
15,5.415415415415415,-0.002865215759626729
15,5.425425425425425,0.006239331117489157
15,5.435435435435435,-0.005618295415202451
15,5.445445445445445,0.001170122776484559
15,5.455455455455455,0.002482098832994153
15,5.465465465465465,-0.01872305166663386
15,5.475475475475475,-0.030636530465321728
15,5.485485485485485,-0.035198358420049265
15,5.495495495495495,-0.061794564393137456
15,5.505505505505505,-0.08365101094251352
15,5.515515515515515,-0.11183476361088529
15,5.525525525525525,-0.1390836974952353
15,5.535535535535535,-0.1760014928627258
15,5.545545545545545,-0.21712755845868562
15,5.555555555555555,-0.2542447446543135
15,5.565565565565565,-0.3006723339839541
15,5.575575575575575,-0.3516562026742812
15,5.585585585585585,-0.39963775034263954
15,5.595595595595595,-0.4631352962244261
15,5.605605605605605,-0.5094997848551484
15,5.615615615615615,-0.5573856367795775
15,5.625625625625625,-0.5984670838324642
15,5.635635635635635,-0.6433649006656492
15,5.645645645645645,-0.6904238799233662
15,5.655655655655655,-0.7169970919065162
15,5.665665665665665,-0.7445547581572522
15,5.675675675675675,-0.754091589981506
15,5.685685685685685,-0.7726419686279069
15,5.6956956956956954,-0.7739112088931671
15,5.7057057057057055,-0.7708153247146167
15,5.7157157157157155,-0.7564977179443502
15,5.7257257257257255,-0.7305600524187612
15,5.7357357357357355,-0.6978567071040517
15,5.7457457457457455,-0.6587285857232185
15,5.7557557557557555,-0.6060471918158826
15,5.7657657657657655,-0.5551235854830704
15,5.7757757757757755,-0.4821606476164865
15,5.7857857857857855,-0.4091989951277613
15,5.7957957957957955,-0.33345346173174956
15,5.8058058058058055,-0.24744947954904567
15,5.8158158158158155,-0.15739389404604154
15,5.8258258258258255,-0.06536213035664835
15,5.8358358358358355,0.018222027221045267
15,5.8458458458458455,0.11559895073931516
15,5.8558558558558556,0.2045433067024753
15,5.865865865865866,0.29011699578332667
15,5.875875875875876,0.37056965375157364
15,5.885885885885886,0.44337359878288685
15,5.895895895895896,0.5169307861891658
15,5.905905905905906,0.5727122828920495
15,5.915915915915916,0.6365280039914389
15,5.925925925925926,0.6736309427551614
15,5.935935935935936,0.7130213758380435
15,5.945945945945946,0.7483971853361695
15,5.955955955955956,0.7721137544012867
15,5.965965965965966,0.7760666440277698
15,5.975975975975976,0.7795508666847437
15,5.985985985985986,0.7747129918087775
15,5.995995995995996,0.75965907561568
15,6.006006006006006,0.7286700999431797
15,6.016016016016016,0.7019198072219099
15,6.026026026026026,0.6620658753641697
15,6.036036036036036,0.6191447370611125
15,6.046046046046046,0.5852794269091568
15,6.056056056056056,0.5340451047585404
15,6.066066066066066,0.480159201077224
15,6.076076076076076,0.4320704312920157
15,6.086086086086086,0.3782348557209398
15,6.096096096096096,0.3242043739129876
15,6.106106106106106,0.27222260527317327
15,6.116116116116116,0.24666806952146708
15,6.126126126126126,0.185773246289256
15,6.136136136136136,0.15738871386400374
15,6.146146146146146,0.11979662361406382
15,6.156156156156156,0.09329806926619956
15,6.166166166166166,0.07997094051089523
15,6.176176176176176,0.05881698107952462
15,6.186186186186186,0.03860200434955867
15,6.196196196196196,0.018942975109064238
15,6.206206206206206,0.011884669449431388
15,6.216216216216216,0.0015605364745220566
15,6.226226226226226,0.004521791799130422
15,6.236236236236236,-0.002992968847177632
15,6.246246246246246,0.002214886859317845
15,6.256256256256256,-0.0043232385721139605
15,6.266266266266266,-0.0038779768491697753
15,6.276276276276276,-0.003555768329418651
15,6.286286286286286,-0.0071620892939995295
15,6.296296296296296,-0.023364135347959766
15,6.306306306306306,-0.032219187087926086
15,6.316316316316316,-0.04065331154081698
15,6.326326326326326,-0.04907023255650249
15,6.336336336336336,-0.07981695139148764
15,6.346346346346346,-0.09938652071693924
15,6.356356356356356,-0.13212063237300287
15,6.366366366366366,-0.15986801507875356
15,6.376376376376376,-0.2061130333052619
15,6.386386386386386,-0.2514629828811496
15,6.396396396396396,-0.3006354892989759
15,6.406406406406406,-0.3413890629169662
15,6.416416416416417,-0.4006409166944937
15,6.426426426426427,-0.44984921712784043
15,6.436436436436437,-0.5034717109142862
15,6.446446446446447,-0.5446201433314569
15,6.456456456456457,-0.5893704556682504
15,6.466466466466467,-0.6364264259490641
15,6.476476476476477,-0.6734806012949797
15,6.486486486486487,-0.7074795179791065
15,6.496496496496497,-0.7388302368973717
15,6.506506506506507,-0.7662047102177911
15,6.516516516516517,-0.7776256151112378
15,6.526526526526527,-0.7807991318354337
15,6.536536536536537,-0.7718816329568624
15,6.546546546546547,-0.7639218316214429
15,6.556556556556557,-0.7366906275684416
15,6.566566566566567,-0.7117540549529606
15,6.576576576576577,-0.6668759846152145
15,6.586586586586587,-0.615286531292234
15,6.596596596596597,-0.5597267632473262
15,6.606606606606607,-0.49791365745011357
15,6.616616616616617,-0.41223609737094674
15,6.626626626626627,-0.35062880613912595
15,6.636636636636637,-0.2636377506308528
15,6.646646646646647,-0.17954558271867563
15,6.656656656656657,-0.09135426358291299
15,6.666666666666667,-0.0008684347820132661
15,6.676676676676677,0.0903674265440882
15,6.686686686686687,0.17725034441034468
15,6.696696696696697,0.2685050597936953
15,6.706706706706707,0.3396870471389553
15,6.716716716716717,0.42538250299201125
15,6.726726726726727,0.49538945618061697
15,6.736736736736737,0.5673359014349422
15,6.746746746746747,0.6283486521198732
15,6.756756756756757,0.669722641323424
15,6.766766766766767,0.7112424479353296
15,6.776776776776777,0.7420094908327326
15,6.786786786786787,0.7621744783774398
15,6.796796796796797,0.7803458055023191
15,6.806806806806807,0.7687859294535081
15,6.816816816816817,0.7739586834611513
15,6.826826826826827,0.7688934730965418
15,6.836836836836837,0.7360776392993215
15,6.846846846846847,0.7042416241956377
15,6.856856856856857,0.6716238405442017
15,6.866866866866867,0.634232130024547
15,6.876876876876877,0.6018489186058313
15,6.886886886886887,0.5381697622652002
15,6.896896896896897,0.5008714557168382
15,6.906906906906907,0.449613630812268
15,6.916916916916917,0.39775127098270696
15,6.926926926926927,0.34585808261167583
15,6.936936936936937,0.2862096599798875
15,6.946946946946947,0.23967753635485523
15,6.956956956956957,0.2031648945080076
15,6.966966966966967,0.1705384454377789
15,6.976976976976977,0.1260257879201936
15,6.986986986986987,0.10263374877136588
15,6.996996996996997,0.07370663024799956
15,7.007007007007007,0.0514444030610401
15,7.017017017017017,0.036483015078321385
15,7.027027027027027,0.027797820606199435
15,7.037037037037037,0.0131525794709759
15,7.047047047047047,-0.0010688529332516837
15,7.057057057057057,-0.0003189186378648487
15,7.067067067067067,0.000878676231902705
15,7.077077077077077,-0.003026721918477822
15,7.087087087087087,-0.002324020963616777
15,7.097097097097097,-0.004860974776410653
15,7.107107107107107,-0.0026048847493426864
15,7.117117117117117,-0.005403045542454721
15,7.127127127127127,-0.005782443630781842
15,7.137137137137137,-0.020987731365481373
15,7.147147147147147,-0.03093782024102056
15,7.157157157157157,-0.05092325507773268
15,7.167167167167167,-0.06733764368936344
15,7.177177177177177,-0.08902921343539905
15,7.187187187187187,-0.11641273332549407
15,7.197197197197197,-0.15198896446324803
15,7.207207207207207,-0.19946390126319025
15,7.217217217217217,-0.23574547013098943
15,7.227227227227227,-0.278224044374723
15,7.237237237237237,-0.32903080576657395
15,7.247247247247247,-0.38694296384386406
15,7.257257257257257,-0.430337550880232
15,7.267267267267267,-0.4833139710364854
15,7.277277277277277,-0.5368548505918112
15,7.287287287287287,-0.5802457604646165
15,7.297297297297297,-0.6262305062194576
15,7.307307307307307,-0.671079205158339
15,7.317317317317317,-0.6959499965777866
15,7.327327327327327,-0.7295082057815026
15,7.337337337337337,-0.7596426200154232
15,7.347347347347347,-0.7747178973497113
15,7.357357357357357,-0.7770203608792088
15,7.367367367367367,-0.7817827186390984
15,7.377377377377377,-0.761898633014675
15,7.387387387387387,-0.7462651108943478
15,7.397397397397397,-0.7190492066487417
15,7.407407407407407,-0.69151335826986
15,7.4174174174174174,-0.6332973453055403
15,7.4274274274274275,-0.5759987247253017
15,7.4374374374374375,-0.5218393557974633
15,7.4474474474474475,-0.4493580788696807
15,7.4574574574574575,-0.3686811671839362
15,7.4674674674674675,-0.3011118344010462
15,7.4774774774774775,-0.20023738519720227
15,7.4874874874874875,-0.11045305702243154
15,7.4974974974974975,-0.02491501488719833
15,7.5075075075075075,0.07139803399096589
15,7.5175175175175175,0.1586182765961211
15,7.5275275275275275,0.24353511691778945
15,7.5375375375375375,0.32957119832532
15,7.5475475475475475,0.40406110419165925
15,7.5575575575575575,0.48449110558998154
15,7.5675675675675675,0.5568631572514879
15,7.5775775775775776,0.6036846235939899
15,7.587587587587588,0.6603432759050323
15,7.597597597597598,0.6994326242874552
15,7.607607607607608,0.7417962097882652
15,7.617617617617618,0.7555537296369975
15,7.627627627627628,0.7754349553409166
15,7.637637637637638,0.7754352081511495
15,7.647647647647648,0.7710265442751546
15,7.657657657657658,0.753754050529692
15,7.667667667667668,0.7379075506635913
15,7.677677677677678,0.7229972165180736
15,7.687687687687688,0.6796462417447725
15,7.697697697697698,0.6455536346520863
15,7.707707707707708,0.6155439182150055
15,7.717717717717718,0.5529097125567621
15,7.727727727727728,0.508363127070985
15,7.737737737737738,0.45787306856690574
15,7.747747747747748,0.4057107532504825
15,7.757757757757758,0.3519371410086697
15,7.767767767767768,0.3020752663090308
15,7.777777777777778,0.2531080450546686
15,7.787787787787788,0.21552422508736133
15,7.797797797797798,0.17634529695340398
15,7.807807807807808,0.1396276756140641
15,7.817817817817818,0.10985969576839377
15,7.827827827827828,0.08095348737905524
15,7.837837837837838,0.059485291722380734
15,7.847847847847848,0.04070780066105407
15,7.857857857857858,0.03178974323318075
15,7.867867867867868,0.014282827826773193
15,7.877877877877878,0.007621019522026177
15,7.887887887887888,0.006254734691652962
15,7.897897897897898,-0.002662666904274288
15,7.907907907907908,0.003967422537834275
15,7.917917917917918,0.002795232328023076
15,7.927927927927928,0.0016186275378206622
15,7.937937937937938,0.0020659233803333845
15,7.947947947947948,-0.011328826987865354
15,7.957957957957958,-0.004689274718787671
15,7.967967967967968,-0.015844934580614436
15,7.977977977977978,-0.030701386721298542
15,7.987987987987988,-0.04581298853817361
15,7.997997997997998,-0.06062729723884916
15,8.008008008008009,-0.08358269052148251
15,8.018018018018019,-0.1142045036853084
15,8.028028028028029,-0.14318425831435216
15,8.038038038038039,-0.18148363001355844
15,8.048048048048049,-0.23410641828694004
15,8.058058058058059,-0.2661204664246737
15,8.068068068068069,-0.3082328177035531
15,8.078078078078079,-0.36556614812903127
15,8.088088088088089,-0.41689943981901695
15,8.098098098098099,-0.4666453328975686
15,8.108108108108109,-0.5259135319330295
15,8.118118118118119,-0.5701506630318801
15,8.128128128128129,-0.6222530421908559
15,8.138138138138139,-0.6566290625877937
15,8.148148148148149,-0.6917458048854704
15,8.158158158158159,-0.7298529787364838
15,8.168168168168169,-0.7468144965258899
15,8.178178178178179,-0.7630800746122459
15,8.188188188188189,-0.7746149217352383
15,8.198198198198199,-0.7716179432577068
15,8.208208208208209,-0.7659089199485017
15,8.218218218218219,-0.7490791726281207
15,8.228228228228229,-0.7249196728871631
15,8.238238238238239,-0.6960446407306243
15,8.248248248248249,-0.6490733023170607
15,8.258258258258259,-0.5920359735499482
15,8.268268268268269,-0.5317821669010756
15,8.278278278278279,-0.4669322331695945
15,8.288288288288289,-0.38607357888396915
15,8.298298298298299,-0.3065824931350473
15,8.308308308308309,-0.223964093051345
15,8.318318318318319,-0.139183609748326
15,8.328328328328329,-0.041322307874566554
15,8.338338338338339,0.041859748161310315
15,8.348348348348349,0.1362058796488359
15,8.358358358358359,0.2316863870680463
15,8.368368368368369,0.3044734867130348
15,8.378378378378379,0.38944726122000417
15,8.388388388388389,0.46220837661454733
15,8.398398398398399,0.5338140773739534
15,8.408408408408409,0.5871491785058935
15,8.418418418418419,0.6398644842119742
15,8.428428428428429,0.6908179882005079
15,8.438438438438439,0.7211276144329387
15,8.448448448448449,0.7515465033221026
15,8.458458458458459,0.7615099264945262
15,8.468468468468469,0.7867042474841788
15,8.478478478478479,0.777338368286818
15,8.488488488488489,0.7628172619381676
15,8.498498498498499,0.7523435446280949
15,8.508508508508509,0.7265681291128232
15,8.518518518518519,0.6939539208006296
15,8.528528528528529,0.6537529861971987
15,8.538538538538539,0.6080224720334941
15,8.548548548548549,0.5650698570490474
15,8.558558558558559,0.5158822975224926
15,8.568568568568569,0.46423542360263315
15,8.578578578578579,0.4220503780542203
15,8.588588588588589,0.36526294315179836
15,8.598598598598599,0.31226361193482777
15,8.608608608608609,0.2748859972687115
15,8.618618618618619,0.23219198654890907
15,8.62862862862863,0.1944792055577284
15,8.63863863863864,0.14811055842093362
15,8.64864864864865,0.11197268078740188
15,8.65865865865866,0.08545223609812665
15,8.66866866866867,0.06433261559251549
15,8.67867867867868,0.04346521922474599
15,8.68868868868869,0.031156485584389663
15,8.6986986986987,0.017707564615551626
15,8.70870870870871,0.016087770676446574
15,8.71871871871872,0.0033457263140924285
15,8.72872872872873,0.0018708975017784923
15,8.73873873873874,0.0029378438731375274
15,8.74874874874875,-0.003514090855323897
15,8.75875875875876,-4.622953172355682e-05
15,8.76876876876877,0.005875386919828926
15,8.77877877877878,-0.004178458328471575
15,8.78878878878879,-0.0072129303283361874
15,8.7987987987988,-0.01519858067110925
15,8.80880880880881,-0.02316722733183681
15,8.81881881881882,-0.038080853875193325
15,8.82882882882883,-0.0537339549877681
15,8.83883883883884,-0.08395471094349387
15,8.84884884884885,-0.10721151850945963
15,8.85885885885886,-0.1403080729122449
15,8.86886886886887,-0.1741666499776539
15,8.87887887887888,-0.20925709761877084
15,8.88888888888889,-0.258747756944868
15,8.8988988988989,-0.3060078746628426
15,8.90890890890891,-0.34928964119408745
15,8.91891891891892,-0.39559101820829934
15,8.92892892892893,-0.4546452964996446
15,8.93893893893894,-0.5019119039747161
15,8.94894894894895,-0.5565784654636943
15,8.95895895895896,-0.5989024472233404
15,8.96896896896897,-0.6419060123591257
15,8.97897897897898,-0.6911076262314269
15,8.98898898898899,-0.7172869450142861
15,8.998998998999,-0.749924771560784
15,9.00900900900901,-0.759034460129997
15,9.01901901901902,-0.7776449358787406
15,9.02902902902903,-0.7810903142624951
15,9.03903903903904,-0.7773555585132317
15,9.04904904904905,-0.7620778739461274
15,9.05905905905906,-0.7372823426694589
15,9.06906906906907,-0.7099280698893266
15,9.07907907907908,-0.6559763063652424
15,9.08908908908909,-0.6147806920324066
15,9.0990990990991,-0.55018025356314
15,9.10910910910911,-0.4696124127228102
15,9.11911911911912,-0.40339785961192237
15,9.12912912912913,-0.32607345779960295
15,9.13913913913914,-0.2328721282431616
15,9.14914914914915,-0.15769047711365644
15,9.15915915915916,-0.06199036139553332
15,9.16916916916917,0.025130926515982113
15,9.17917917917918,0.10868958624086116
15,9.18918918918919,0.2053999488145288
15,9.1991991991992,0.29114506959693115
15,9.20920920920921,0.3646959137329983
15,9.21921921921922,0.4379486302075774
15,9.22922922922923,0.5276340098934654
15,9.23923923923924,0.5858444750911239
15,9.24924924924925,0.6246044629298177
15,9.25925925925926,0.6808039384140145
15,9.26926926926927,0.7157863973990649
15,9.27927927927928,0.7485414568473513
15,9.28928928928929,0.7650871095305414
15,9.2992992992993,0.7751519642180954
15,9.30930930930931,0.7827509352520529
15,9.31931931931932,0.7740495824718712
15,9.32932932932933,0.7555394178304086
15,9.33933933933934,0.7309696079324033
15,9.34934934934935,0.6999883381145429
15,9.35935935935936,0.6653775540819357
15,9.36936936936937,0.624356033183917
15,9.37937937937938,0.5753290943432914
15,9.38938938938939,0.5303138849289694
15,9.3993993993994,0.483992678056743
15,9.40940940940941,0.4364375814470827
15,9.41941941941942,0.3827568514850503
15,9.42942942942943,0.3339732080837064
15,9.43943943943944,0.2879008068598345
15,9.44944944944945,0.23218369146149698
15,9.45945945945946,0.19232260170099286
15,9.46946946946947,0.1540319889467132
15,9.47947947947948,0.12214174123627787
15,9.48948948948949,0.08744121327708458
15,9.4994994994995,0.07378034905797325
15,9.50950950950951,0.05022097783965065
15,9.51951951951952,0.031928437733217144
15,9.52952952952953,0.023174364509370753
15,9.53953953953954,0.011518444041847504
15,9.54954954954955,0.0131792888661318
15,9.55955955955956,0.0010997115362453174
15,9.56956956956957,0.0011861121024676984
15,9.57957957957958,0.007698989876317644
15,9.58958958958959,0.003679270432133539
15,9.5995995995996,-0.0004518126109026144
15,9.60960960960961,-0.005628516804119172
15,9.61961961961962,-0.004525557696442622
15,9.62962962962963,-0.018282928926440838
15,9.63963963963964,-0.020813337316719433
15,9.64964964964965,-0.03248802389788953
15,9.65965965965966,-0.05219808731668912
15,9.66966966966967,-0.07095594306797258
15,9.67967967967968,-0.0909421632641291
15,9.68968968968969,-0.13412090852658878
15,9.6996996996997,-0.16796627148140536
15,9.70970970970971,-0.21061798290428507
15,9.71971971971972,-0.23723078084399563
15,9.72972972972973,-0.29579096328248505
15,9.73973973973974,-0.33749485874423085
15,9.74974974974975,-0.39760864852987027
15,9.75975975975976,-0.44172694901249854
15,9.76976976976977,-0.495200819771954
15,9.77977977977978,-0.543423226552596
15,9.78978978978979,-0.5876881351225495
15,9.7997997997998,-0.6266761261251774
15,9.80980980980981,-0.6695226294519032
15,9.81981981981982,-0.7140458148425182
15,9.82982982982983,-0.7336802575627015
15,9.83983983983984,-0.7591348207447745
15,9.84984984984985,-0.7768001372334127
15,9.85985985985986,-0.7814956124873331
15,9.86986986986987,-0.7776646126420819
15,9.87987987987988,-0.7666054127147692
15,9.88988988988989,-0.7382077394586137
15,9.8998998998999,-0.7079951121158221
15,9.90990990990991,-0.6800579289914789
15,9.91991991991992,-0.6237190899933385
15,9.92992992992993,-0.564813294196881
15,9.93993993993994,-0.5032268475270578
15,9.94994994994995,-0.42548423810269725
15,9.95995995995996,-0.35305833630009054
15,9.96996996996997,-0.26608997306445836
15,9.97997997997998,-0.18094251067102024
15,9.98998998998999,-0.08764539573723873
15,10.0,-0.00884402300416607
