Subject_ID,Time,PPG
5,0.0,0.0013610834231106183
5,0.01001001001001001,0.09221254882857807
5,0.02002002002002002,0.18279672207663225
5,0.03003003003003003,0.2603897064706865
5,0.04004004004004004,0.3434757113908926
5,0.050050050050050046,0.41845394692606247
5,0.06006006006006006,0.4985991282385905
5,0.07007007007007007,0.5643842049691421
5,0.08008008008008008,0.6221673789121861
5,0.09009009009009009,0.6666499942581959
5,0.10010010010010009,0.705057081506269
5,0.11011011011011011,0.7450929694961437
5,0.12012012012012012,0.7627493186944645
5,0.13013013013013014,0.7729442567746271
5,0.14014014014014015,0.7790427740333247
5,0.15015015015015015,0.7690960020929849
5,0.16016016016016016,0.7602460225909277
5,0.17017017017017017,0.7394328818959969
5,0.18018018018018017,0.7087030201246302
5,0.19019019019019018,0.6757558689482688
5,0.20020020020020018,0.6391368467943471
5,0.21021021021021022,0.5874837541749263
5,0.22022022022022023,0.5443200166195367
5,0.23023023023023023,0.49399917931196424
5,0.24024024024024024,0.44453438537607665
5,0.2502502502502503,0.3915893218188881
5,0.2602602602602603,0.3389341045243569
5,0.2702702702702703,0.2924989991081683
5,0.2802802802802803,0.26045007847635265
5,0.2902902902902903,0.20167733310488342
5,0.3003003003003003,0.1592882184043676
5,0.3103103103103103,0.1421480088114804
5,0.3203203203203203,0.10072490287952642
5,0.3303303303303303,0.07343341107702095
5,0.34034034034034033,0.05062034184763428
5,0.35035035035035034,0.029564864793241177
5,0.36036036036036034,0.01842563873937418
5,0.37037037037037035,0.010553416302131418
5,0.38038038038038036,0.004151983791261619
5,0.39039039039039036,0.006325045691512027
5,0.40040040040040037,-0.0005054676048221714
5,0.41041041041041043,-0.003937124433890787
5,0.42042042042042044,-0.002762028774838589
5,0.43043043043043044,0.0023785099911032104
5,0.44044044044044045,-0.009922736335353493
5,0.45045045045045046,0.0043343739879040145
5,0.46046046046046046,-0.008330146475075491
5,0.47047047047047047,-0.02378649027371462
5,0.4804804804804805,-0.02431220524261451
5,0.4904904904904905,-0.045786301319330217
5,0.5005005005005005,-0.07231924256683298
5,0.5105105105105106,-0.09640648567673685
5,0.5205205205205206,-0.11984681243639214
5,0.5305305305305306,-0.1532866557706613
5,0.5405405405405406,-0.1916774955018715
5,0.5505505505505506,-0.2347934150631903
5,0.5605605605605606,-0.2813405238129903
5,0.5705705705705706,-0.3257024623019454
5,0.5805805805805806,-0.3807228052143475
5,0.5905905905905906,-0.4376591212660897
5,0.6006006006006006,-0.48498942957639357
5,0.6106106106106106,-0.5287297617459398
5,0.6206206206206206,-0.5852705346218963
5,0.6306306306306306,-0.620751596418488
5,0.6406406406406406,-0.6709990723502589
5,0.6506506506506506,-0.7074419965102229
5,0.6606606606606606,-0.7289436622359364
5,0.6706706706706707,-0.7543617976948686
5,0.6806806806806807,-0.7724982861062116
5,0.6906906906906907,-0.7796124869988962
5,0.7007007007007007,-0.7864851467015467
5,0.7107107107107107,-0.7697296878429409
5,0.7207207207207207,-0.7426708232228879
5,0.7307307307307307,-0.7195085512891732
5,0.7407407407407407,-0.6788736158415991
5,0.7507507507507507,-0.6294597844109011
5,0.7607607607607607,-0.5807145354318379
5,0.7707707707707707,-0.5069875735532543
5,0.7807807807807807,-0.4543905895547353
5,0.7907907907907907,-0.36358695762016846
5,0.8008008008008007,-0.2807530750460368
5,0.8108108108108109,-0.205277749478736
5,0.8208208208208209,-0.10983032830494813
5,0.8308308308308309,-0.016218651569227138
5,0.8408408408408409,0.06711591377013862
5,0.8508508508508509,0.16469621822364036
5,0.8608608608608609,0.24566200393105173
5,0.8708708708708709,0.3357438805139632
5,0.8808808808808809,0.40223748601603027
5,0.8908908908908909,0.4852896488145532
5,0.9009009009009009,0.5513320124512527
5,0.9109109109109109,0.5972333303205293
5,0.9209209209209209,0.6612125030631949
5,0.9309309309309309,0.6988001988625954
5,0.9409409409409409,0.735951841262208
5,0.950950950950951,0.7498938729780018
5,0.960960960960961,0.7829368209890994
5,0.970970970970971,0.7718887050037089
5,0.980980980980981,0.7668104484762669
5,0.990990990990991,0.7671886854497237
5,1.001001001001001,0.7462717679494052
5,1.011011011011011,0.720263533224453
5,1.021021021021021,0.6844371408902787
5,1.031031031031031,0.6393049108499383
5,1.0410410410410411,0.6040105183009243
5,1.0510510510510511,0.5576324495417907
5,1.0610610610610611,0.510643991961633
5,1.0710710710710711,0.4586854638957883
5,1.0810810810810811,0.3979506258463332
5,1.0910910910910911,0.35345590251055753
5,1.1011011011011012,0.3085732563514164
5,1.1111111111111112,0.258265789568805
5,1.1211211211211212,0.21038720105983236
5,1.1311311311311312,0.16838865306944478
5,1.1411411411411412,0.13578497436049156
5,1.1511511511511512,0.10690792397497247
5,1.1611611611611612,0.07538352515900551
5,1.1711711711711712,0.057976433294410136
5,1.1811811811811812,0.052000796376260996
5,1.1911911911911912,0.03183034160319739
5,1.2012012012012012,0.018313896437477536
5,1.2112112112112112,0.0019489694763440667
5,1.2212212212212212,0.0014190293282209435
5,1.2312312312312312,0.007800501034771818
5,1.2412412412412412,-0.0019454604825439293
5,1.2512512512512513,-0.013425650310511118
5,1.2612612612612613,-0.0035813533837760468
5,1.2712712712712713,0.0010466856565762468
5,1.2812812812812813,-0.011686334351670305
5,1.2912912912912913,-0.01004529252692981
5,1.3013013013013013,-0.022057972911
5,1.3113113113113113,-0.03613195650326019
5,1.3213213213213213,-0.03646323231864071
5,1.3313313313313313,-0.06651757552836997
5,1.3413413413413413,-0.07806917780422926
5,1.3513513513513513,-0.11871264694780191
5,1.3613613613613613,-0.15394146938709935
5,1.3713713713713713,-0.18082354751732846
5,1.3813813813813813,-0.2369762569257919
5,1.3913913913913913,-0.2758389021796588
5,1.4014014014014013,-0.324164258904592
5,1.4114114114114114,-0.3656284301403558
5,1.4214214214214214,-0.4153070360181736
5,1.4314314314314314,-0.465233267181979
5,1.4414414414414414,-0.5259955146762142
5,1.4514514514514514,-0.5647565948567091
5,1.4614614614614614,-0.6179999023613084
5,1.4714714714714714,-0.6607937424423599
5,1.4814814814814814,-0.6911382273410059
5,1.4914914914914914,-0.724298439412707
5,1.5015015015015014,-0.7562565172361772
5,1.5115115115115114,-0.7715141209903388
5,1.5215215215215214,-0.7705012723503487
5,1.5315315315315314,-0.774095775095873
5,1.5415415415415414,-0.7677823588357573
5,1.5515515515515514,-0.7543947325572442
5,1.5615615615615615,-0.72972475396772
5,1.5715715715715715,-0.6957421178106321
5,1.5815815815815815,-0.6441400492646531
5,1.5915915915915915,-0.5922531857594241
5,1.6016016016016015,-0.530944622577643
5,1.6116116116116117,-0.468810853380359
5,1.6216216216216217,-0.39043575671835284
5,1.6316316316316317,-0.3032661335985873
5,1.6416416416416417,-0.21859566274265899
5,1.6516516516516517,-0.13392072666553043
5,1.6616616616616617,-0.04590395560568049
5,1.6716716716716717,0.04506382657163696
5,1.6816816816816818,0.13484036754715076
5,1.6916916916916918,0.23168746124078562
5,1.7017017017017018,0.3028615184109044
5,1.7117117117117118,0.3892907445580704
5,1.7217217217217218,0.46487938199082607
5,1.7317317317317318,0.5285868834203813
5,1.7417417417417418,0.5898125409132016
5,1.7517517517517518,0.649622456057338
5,1.7617617617617618,0.684732923702498
5,1.7717717717717718,0.7328912239056753
5,1.7817817817817818,0.7681584277526424
5,1.7917917917917918,0.7676888853181114
5,1.8018018018018018,0.7772854442503472
5,1.8118118118118118,0.7836537204114602
5,1.8218218218218218,0.7692229909387491
5,1.8318318318318318,0.7528491044589163
5,1.8418418418418419,0.7273320532151168
5,1.8518518518518519,0.686229979693564
5,1.8618618618618619,0.664966688459774
5,1.8718718718718719,0.6168850629153931
5,1.8818818818818819,0.5670425721275837
5,1.8918918918918919,0.5260203661301408
5,1.901901901901902,0.47262628061935674
5,1.911911911911912,0.4167626904408854
5,1.921921921921922,0.37271973043383866
5,1.931931931931932,0.32625226475080604
5,1.941941941941942,0.27031452060941435
5,1.951951951951952,0.2249478983654223
5,1.961961961961962,0.18680306910583586
5,1.971971971971972,0.15211856577614397
5,1.981981981981982,0.11686667092920167
5,1.991991991991992,0.08203767306607682
5,2.002002002002002,0.0629515274018575
5,2.012012012012012,0.04626767676835592
5,2.022022022022022,0.029622031058128485
5,2.032032032032032,0.02096208350417355
5,2.042042042042042,0.003509462274665534
5,2.052052052052052,-0.004114525196193878
5,2.062062062062062,0.003192159680943296
5,2.0720720720720722,-0.002959265402065184
5,2.0820820820820822,0.0038547103707002755
5,2.0920920920920922,-0.0005162973390961669
5,2.1021021021021022,0.005784902961696732
5,2.1121121121121122,0.0027418031397934634
5,2.1221221221221223,-0.008289537364073995
5,2.1321321321321323,-0.01766921815131119
5,2.1421421421421423,-0.02540621834489648
5,2.1521521521521523,-0.04673839533063143
5,2.1621621621621623,-0.05156212236080801
5,2.1721721721721723,-0.08132092219558121
5,2.1821821821821823,-0.11545521265596312
5,2.1921921921921923,-0.1460000442503754
5,2.2022022022022023,-0.17101049397253587
5,2.2122122122122123,-0.22580712222782526
5,2.2222222222222223,-0.2661069108828498
5,2.2322322322322323,-0.3074242451974344
5,2.2422422422422423,-0.3460491542341862
5,2.2522522522522523,-0.40304188877210284
5,2.2622622622622623,-0.46099126944404606
5,2.2722722722722724,-0.509424719999921
5,2.2822822822822824,-0.559520231806846
5,2.2922922922922924,-0.591401675672233
5,2.3023023023023024,-0.6579179734239525
5,2.3123123123123124,-0.6818799236864945
5,2.3223223223223224,-0.7175726049573498
5,2.3323323323323324,-0.7472722020267688
5,2.3423423423423424,-0.7565312074210577
5,2.3523523523523524,-0.7684963424022202
5,2.3623623623623624,-0.7847861683665626
5,2.3723723723723724,-0.7747920344276041
5,2.3823823823823824,-0.7598756158184466
5,2.3923923923923924,-0.7360833184934319
5,2.4024024024024024,-0.7096695312768109
5,2.4124124124124124,-0.657248824898111
5,2.4224224224224224,-0.6012277573157624
5,2.4324324324324325,-0.5467089373811146
5,2.4424424424424425,-0.4740565024023488
5,2.4524524524524525,-0.40370796385975993
5,2.4624624624624625,-0.33570722341718984
5,2.4724724724724725,-0.23949850995569888
5,2.4824824824824825,-0.14689007235116086
5,2.4924924924924925,-0.07450850872977577
5,2.5025025025025025,0.02738455671847409
5,2.5125125125125125,0.10876994421951867
5,2.5225225225225225,0.1983483314455649
5,2.5325325325325325,0.2851147881019148
5,2.5425425425425425,0.3657032711545319
5,2.5525525525525525,0.4377175072280982
5,2.5625625625625625,0.5069446293800913
5,2.5725725725725725,0.5785632148029013
5,2.5825825825825826,0.6296052882629211
5,2.5925925925925926,0.6864386812249882
5,2.6026026026026026,0.7188049969595641
5,2.6126126126126126,0.7499658576480344
5,2.6226226226226226,0.7671779865307556
5,2.6326326326326326,0.7768231271871583
5,2.6426426426426426,0.7787625494782981
5,2.6526526526526526,0.7683979935045934
5,2.6626626626626626,0.7584157219377882
5,2.6726726726726726,0.7377021795839538
5,2.6826826826826826,0.7029033867642652
5,2.6926926926926926,0.6667753264119834
5,2.7027027027027026,0.6243228398403337
5,2.7127127127127126,0.5738615114782006
5,2.7227227227227226,0.5264147525292673
5,2.7327327327327327,0.4797420496800922
5,2.7427427427427427,0.4311330558520589
5,2.7527527527527527,0.376730269683654
5,2.7627627627627627,0.3325004332364339
5,2.7727727727727727,0.2852837826665421
5,2.7827827827827827,0.22950437737683854
5,2.7927927927927927,0.19733042454113361
5,2.8028028028028027,0.162943384135578
5,2.8128128128128127,0.11487553068705261
5,2.8228228228228227,0.096348546271892
5,2.8328328328328327,0.0753613247927678
5,2.8428428428428427,0.04457725202676858
5,2.8528528528528527,0.02422746348540256
5,2.8628628628628627,0.028825472878146498
5,2.8728728728728727,0.003865845376432096
5,2.8828828828828827,0.004255274407759744
5,2.8928928928928928,0.011387816494381746
5,2.9029029029029028,0.004417192827943332
5,2.9129129129129128,-0.0005197021385777044
5,2.9229229229229228,-0.005537056900842049
5,2.932932932932933,-0.0002831068717037465
5,2.942942942942943,-0.0024835131293340883
5,2.952952952952953,-0.003812425911009882
5,2.962962962962963,-0.016575526490064635
5,2.972972972972973,-0.03007459785911093
5,2.982982982982983,-0.02866464288951369
5,2.992992992992993,-0.05473604234936686
5,3.003003003003003,-0.07844043207623011
5,3.013013013013013,-0.1068455241288733
5,3.023023023023023,-0.13435736092390324
5,3.033033033033033,-0.17155713173215534
5,3.043043043043043,-0.20703130048236973
5,3.053053053053053,-0.252096200704213
5,3.063063063063063,-0.2887471452488443
5,3.073073073073073,-0.3388202992560753
5,3.083083083083083,-0.39102136394988607
5,3.093093093093093,-0.4486841412433707
5,3.103103103103103,-0.48428810692392854
5,3.113113113113113,-0.5464590135940691
5,3.123123123123123,-0.5884652337536871
5,3.133133133133133,-0.6339076091499928
5,3.143143143143143,-0.6846485786727249
5,3.153153153153153,-0.7114644021505463
5,3.163163163163163,-0.7359407022471195
5,3.173173173173173,-0.7550501102640477
5,3.183183183183183,-0.7669595109715445
5,3.193193193193193,-0.7791634399543041
5,3.203203203203203,-0.7805982600699177
5,3.2132132132132134,-0.7656391425030008
5,3.2232232232232234,-0.7417024810170747
5,3.2332332332332334,-0.7101810291355876
5,3.2432432432432434,-0.6745923974801032
5,3.2532532532532534,-0.6181748443089966
5,3.2632632632632634,-0.5628019179965728
5,3.2732732732732734,-0.5023425707426151
5,3.2832832832832834,-0.42970296058493435
5,3.2932932932932935,-0.35324954342045434
5,3.3033033033033035,-0.2607801272124412
5,3.3133133133133135,-0.17953172367075543
5,3.3233233233233235,-0.09638384515705267
5,3.3333333333333335,-0.006085021172779302
5,3.3433433433433435,0.09453956273590379
5,3.3533533533533535,0.18022619357046826
5,3.3633633633633635,0.2608937181350493
5,3.3733733733733735,0.35488430176107705
5,3.3833833833833835,0.42750287289297967
5,3.3933933933933935,0.49948940383999385
5,3.4034034034034035,0.5612377977208535
5,3.4134134134134135,0.6266910878263241
5,3.4234234234234235,0.6669736261300755
5,3.4334334334334335,0.7123064391425683
5,3.4434434434434436,0.7475870851494482
5,3.4534534534534536,0.7669996167418998
5,3.4634634634634636,0.7715456683780042
5,3.4734734734734736,0.7829674282131938
5,3.4834834834834836,0.7793479460729018
5,3.4934934934934936,0.7649170157903528
5,3.5035035035035036,0.7422474568003348
5,3.5135135135135136,0.7021801129536326
5,3.5235235235235236,0.667122453935194
5,3.5335335335335336,0.6294682593908736
5,3.5435435435435436,0.5906375452764412
5,3.5535535535535536,0.5393239107221897
5,3.5635635635635636,0.49163885314142963
5,3.5735735735735736,0.4321717421963206
5,3.5835835835835836,0.3923257838754659
5,3.5935935935935936,0.3413217211888018
5,3.6036036036036037,0.2851131202971356
5,3.6136136136136137,0.2502021755733281
5,3.6236236236236237,0.19535577650737024
5,3.6336336336336337,0.167666535360825
5,3.6436436436436437,0.13704243831224353
5,3.6536536536536537,0.10638515300904959
5,3.6636636636636637,0.0768507149283608
5,3.6736736736736737,0.055997896124574724
5,3.6836836836836837,0.035919438135241503
5,3.6936936936936937,0.016981074010476556
5,3.7037037037037037,0.017487784081750713
5,3.7137137137137137,0.010121297061286361
5,3.7237237237237237,0.003409548787152768
5,3.7337337337337337,-0.003565748596071076
5,3.7437437437437437,-0.002676418342277477
5,3.7537537537537538,-0.0055655788799880215
5,3.7637637637637638,0.0032252143980275334
5,3.7737737737737738,-0.003437283587263966
5,3.7837837837837838,0.0010416549670497358
5,3.793793793793794,-0.004285370574707718
5,3.803803803803804,-0.01668968905597312
5,3.813813813813814,-0.031211554021622123
5,3.823823823823824,-0.04645601839983314
5,3.833833833833834,-0.06618005652036868
5,3.843843843843844,-0.08376472531677132
5,3.853853853853854,-0.1267828076115321
5,3.863863863863864,-0.16275601508147017
5,3.873873873873874,-0.20373605411518259
5,3.883883883883884,-0.236597139504805
5,3.893893893893894,-0.2873510578379027
5,3.903903903903904,-0.3326780744009476
5,3.913913913913914,-0.3861627089136288
5,3.923923923923924,-0.4337015374483316
5,3.933933933933934,-0.4839508890403699
5,3.943943943943944,-0.5362248097623076
5,3.953953953953954,-0.5714372241703991
5,3.963963963963964,-0.6280111935002182
5,3.973973973973974,-0.6658597329116543
5,3.983983983983984,-0.6944070320693917
5,3.993993993993994,-0.7277865527893385
5,4.004004004004004,-0.746731672759667
5,4.014014014014014,-0.7757862180332771
5,4.024024024024024,-0.7686660212088667
5,4.034034034034034,-0.7872100649967818
5,4.044044044044044,-0.7704997752140439
5,4.054054054054054,-0.7474682668434259
5,4.064064064064064,-0.7249707842048541
5,4.074074074074074,-0.6791889951669151
5,4.084084084084084,-0.640033357993756
5,4.094094094094094,-0.5744726123479352
5,4.104104104104104,-0.5085764607519269
5,4.114114114114114,-0.44429097785002436
5,4.124124124124124,-0.37403109225676573
5,4.134134134134134,-0.29270477920293975
5,4.1441441441441444,-0.2019989632509082
5,4.1541541541541545,-0.10835134799438854
5,4.1641641641641645,-0.019473124603435834
5,4.1741741741741745,0.06991041938625725
5,4.1841841841841845,0.15622177239866927
5,4.1941941941941945,0.23725949374582628
5,4.2042042042042045,0.34269719101936835
5,4.2142142142142145,0.4018012582817846
5,4.2242242242242245,0.47413023506893065
5,4.2342342342342345,0.5518307320368577
5,4.2442442442442445,0.6055400807091474
5,4.2542542542542545,0.6642070505945081
5,4.2642642642642645,0.6973662953080295
5,4.2742742742742745,0.7352732408789754
5,4.2842842842842845,0.7589240912690178
5,4.2942942942942945,0.7670422025323265
5,4.3043043043043046,0.7769748914625041
5,4.314314314314315,0.7770786120868979
5,4.324324324324325,0.7722749619615896
5,4.334334334334335,0.7419045256242566
5,4.344344344344345,0.7196894576284946
5,4.354354354354355,0.6804751867697787
5,4.364364364364365,0.6479939814392964
5,4.374374374374375,0.6071957153289951
5,4.384384384384385,0.550963044747841
5,4.394394394394395,0.4991393451143985
5,4.404404404404405,0.45922550613504787
5,4.414414414414415,0.40074319774066647
5,4.424424424424425,0.35512109911947626
5,4.434434434434435,0.30556352426986255
5,4.444444444444445,0.25519483640841134
5,4.454454454454455,0.21325819813636213
5,4.464464464464465,0.17386408294154612
5,4.474474474474475,0.14270502020251755
5,4.484484484484485,0.10561320831017204
5,4.494494494494495,0.08081540425254463
5,4.504504504504505,0.05629549405609594
5,4.514514514514515,0.03437201446973377
5,4.524524524524525,0.02500017317172232
5,4.534534534534535,0.02119830979876585
5,4.544544544544545,0.0020658844876761673
5,4.554554554554555,-0.0014415060756881046
5,4.564564564564565,0.006280957818861306
5,4.574574574574575,0.005294114952980412
5,4.584584584584585,0.0018756128615299641
5,4.594594594594595,-0.009643854289410218
5,4.604604604604605,0.00023627068552936874
5,4.614614614614615,0.0020313276206430017
5,4.624624624624625,-0.008899021289713132
5,4.634634634634635,-0.017382334510897345
5,4.644644644644645,-0.027758051325477668
5,4.654654654654655,-0.046060538655835294
5,4.664664664664665,-0.06358954821628546
5,4.674674674674675,-0.07573715204236595
5,4.684684684684685,-0.11168845411680116
5,4.694694694694695,-0.14203702538595825
5,4.704704704704705,-0.19110158829948062
5,4.714714714714715,-0.23111266994179194
5,4.724724724724725,-0.27580271520013827
5,4.734734734734735,-0.31954779665621735
5,4.744744744744745,-0.36662235286809475
5,4.754754754754755,-0.41445638628717457
5,4.764764764764765,-0.46980703321511375
5,4.774774774774775,-0.5126371305416163
5,4.784784784784785,-0.562829892028802
5,4.794794794794795,-0.6169650658189613
5,4.804804804804805,-0.6573783098668626
5,4.814814814814815,-0.6930791461521475
5,4.824824824824825,-0.729235913711774
5,4.834834834834835,-0.7440482119758406
5,4.844844844844845,-0.7709873681082168
5,4.854854854854855,-0.7781073588967066
5,4.864864864864865,-0.7699805786120412
5,4.874874874874875,-0.7796306018396792
5,4.884884884884885,-0.7583130772611247
5,4.894894894894895,-0.7341581998453991
5,4.904904904904905,-0.6960535696624321
5,4.914914914914915,-0.63482407803217
5,4.924924924924925,-0.5927594182898314
5,4.934934934934935,-0.5340008888150144
5,4.944944944944945,-0.46728589086686073
5,4.954954954954955,-0.39729401683879717
5,4.964964964964965,-0.3098459286537249
5,4.974974974974975,-0.22363304072056028
5,4.984984984984985,-0.14074118271501754
5,4.994994994994995,-0.04852712137726211
5,5.005005005005005,0.04913966388238862
5,5.015015015015015,0.13987497881375754
5,5.025025025025025,0.22509924567219217
5,5.035035035035035,0.31244017788718786
5,5.045045045045045,0.3943471857306649
5,5.055055055055055,0.46074581567833317
5,5.065065065065065,0.5375201665295734
5,5.075075075075075,0.6042805454924479
5,5.085085085085085,0.6481005487331323
5,5.095095095095095,0.6914492908417913
5,5.105105105105105,0.7187589707309934
5,5.115115115115115,0.7532394598502409
5,5.125125125125125,0.7670302456428268
5,5.135135135135135,0.7773911528628358
5,5.145145145145145,0.7791072573030674
5,5.155155155155155,0.7647674587826678
5,5.165165165165165,0.7589281615185509
5,5.175175175175175,0.7241874105444365
5,5.185185185185185,0.6908160465784975
5,5.195195195195195,0.6541745443130595
5,5.205205205205205,0.6265076357551956
5,5.215215215215215,0.5636464616373578
5,5.225225225225225,0.5246536569229769
5,5.235235235235235,0.46935921492366006
5,5.245245245245245,0.4116054455051054
5,5.255255255255255,0.3606655911796646
5,5.265265265265265,0.31329585463458204
5,5.275275275275275,0.2749057874295642
5,5.285285285285285,0.22884446223098487
5,5.295295295295295,0.18636194867616696
5,5.305305305305305,0.14508830562922004
5,5.315315315315315,0.12158673704844115
5,5.325325325325325,0.08014498260531545
5,5.335335335335335,0.05751743758443471
5,5.345345345345345,0.035667378986803895
5,5.355355355355355,0.028143755278200535
5,5.365365365365365,0.011642205490201226
5,5.375375375375375,0.003451966235947082
5,5.385385385385385,0.005181532684339796
5,5.395395395395395,0.005657124941617693
5,5.405405405405405,-0.003983421359740588
5,5.415415415415415,0.008413626913961067
5,5.425425425425425,0.0048352171509839425
5,5.435435435435435,-0.0024030976110267287
5,5.445445445445445,-0.0025497047564419237
5,5.455455455455455,-0.0038440323761817375
5,5.465465465465465,-0.013841407993315347
5,5.475475475475475,-0.02523236224642314
5,5.485485485485485,-0.043991142057234416
5,5.495495495495495,-0.05187790841358467
5,5.505505505505505,-0.08534992376506852
5,5.515515515515515,-0.10335064954723226
5,5.525525525525525,-0.14287755785334266
5,5.535535535535535,-0.17214597853314695
5,5.545545545545545,-0.2086951777828804
5,5.555555555555555,-0.25618607874573385
5,5.565565565565565,-0.30558698213513663
5,5.575575575575575,-0.34559218184845386
5,5.585585585585585,-0.40784927799566606
5,5.595595595595595,-0.45113301010152396
5,5.605605605605605,-0.5150554530537408
5,5.615615615615615,-0.5562205264220892
5,5.625625625625625,-0.6007649212964508
5,5.635635635635635,-0.6430864975923506
5,5.645645645645645,-0.6843084923624659
5,5.655655655655655,-0.7199934615668925
5,5.665665665665665,-0.7492534668633493
5,5.675675675675675,-0.7687908441439467
5,5.685685685685685,-0.7810091127772946
5,5.6956956956956954,-0.7775196316421271
5,5.7057057057057055,-0.7663769940848983
5,5.7157157157157155,-0.7608603460839948
5,5.7257257257257255,-0.7307619356808673
5,5.7357357357357355,-0.7007841895307843
5,5.7457457457457455,-0.659217861224676
5,5.7557557557557555,-0.5990491477816311
5,5.7657657657657655,-0.5476849432912462
5,5.7757757757757755,-0.48172728046000224
5,5.7857857857857855,-0.4102281763259805
5,5.7957957957957955,-0.32320695673835204
5,5.8058058058058055,-0.25262276200130285
5,5.8158158158158155,-0.16045602990186447
5,5.8258258258258255,-0.07132965928331073
5,5.8358358358358355,0.025760450757444826
5,5.8458458458458455,0.11795018038442825
5,5.8558558558558556,0.2025053074046788
5,5.865865865865866,0.289558232227186
5,5.875875875875876,0.360021204576301
5,5.885885885885886,0.44055843266906464
5,5.895895895895896,0.5187724329590772
5,5.905905905905906,0.5772371888623217
5,5.915915915915916,0.6344711000038319
5,5.925925925925926,0.6810670015839095
5,5.935935935935936,0.7166146528705866
5,5.945945945945946,0.7475871978010769
5,5.955955955955956,0.7729892943987414
5,5.965965965965966,0.7713995928045668
5,5.975975975975976,0.7733464790813971
5,5.985985985985986,0.7684092822091972
5,5.995995995995996,0.7608620592727555
5,6.006006006006006,0.7244249786554056
5,6.016016016016016,0.7012752323899498
5,6.026026026026026,0.6686075918973483
5,6.036036036036036,0.6224932842866139
5,6.046046046046046,0.5783503801480554
5,6.056056056056056,0.5436095393246425
5,6.066066066066066,0.4892825877749667
5,6.076076076076076,0.4387361510901723
5,6.086086086086086,0.37933606696500777
5,6.096096096096096,0.3313889419599347
5,6.106106106106106,0.27396041747638455
5,6.116116116116116,0.2451939187928064
5,6.126126126126126,0.18663260450084654
5,6.136136136136136,0.15800458547444635
5,6.146146146146146,0.12226583456244167
5,6.156156156156156,0.10488762087751465
5,6.166166166166166,0.07058272910060162
5,6.176176176176176,0.05189798170450506
5,6.186186186186186,0.029930000866130534
5,6.196196196196196,0.025571740308546434
5,6.206206206206206,0.009125957881262399
5,6.216216216216216,-0.005844302792341693
5,6.226226226226226,6.72840358812393e-05
5,6.236236236236236,0.006885054728082037
5,6.246246246246246,-0.0006678047417096218
5,6.256256256256256,0.006717694921110177
5,6.266266266266266,-0.009025110480562046
5,6.276276276276276,-0.0017198112496902432
5,6.286286286286286,-0.008623367461537272
5,6.296296296296296,0.0009868476895838751
5,6.306306306306306,-0.019566978255499596
5,6.316316316316316,-0.04671324607813928
5,6.326326326326326,-0.05423626082529398
5,6.336336336336336,-0.07785121283241729
5,6.346346346346346,-0.09272147655759656
5,6.356356356356356,-0.1305228270398992
5,6.366366366366366,-0.16455110703403603
5,6.376376376376376,-0.20249278153493838
5,6.386386386386386,-0.24701708954929746
5,6.396396396396396,-0.29305630368379887
5,6.406406406406406,-0.350554332870092
5,6.416416416416417,-0.3999552216278276
5,6.426426426426427,-0.44491411261667074
5,6.436436436436437,-0.49597928383926226
5,6.446446446446447,-0.541420928517324
5,6.456456456456457,-0.5945395792672363
5,6.466466466466467,-0.631960598123721
5,6.476476476476477,-0.677562369179228
5,6.486486486486487,-0.7141318504404771
5,6.496496496496497,-0.7350861667746471
5,6.506506506506507,-0.7618795284801937
5,6.516516516516517,-0.7735737263395774
5,6.526526526526527,-0.7857856795836707
5,6.536536536536537,-0.7791769960011335
5,6.546546546546547,-0.7561283827981276
5,6.556556556556557,-0.7440622701418663
5,6.566566566566567,-0.7247420924528319
5,6.576576576576577,-0.6811129640130741
5,6.586586586586587,-0.6199752098392678
5,6.596596596596597,-0.5653783928694912
5,6.606606606606607,-0.495029785826503
5,6.616616616616617,-0.4221303010980927
5,6.626626626626627,-0.3549627700699156
5,6.636636636636637,-0.2670583747507736
5,6.646646646646647,-0.18731829075309467
5,6.656656656656657,-0.07741293292366051
5,6.666666666666667,-0.005291771747741876
5,6.676676676676677,0.0869889456455328
5,6.686686686686687,0.1746407999180923
5,6.696696696696697,0.27731002345325606
5,6.706706706706707,0.34380797900686644
5,6.716716716716717,0.4243924800459037
5,6.726726726726727,0.4962598610037712
5,6.736736736736737,0.5738099714231131
5,6.746746746746747,0.6241341984730496
5,6.756756756756757,0.6752013705049275
5,6.766766766766767,0.7042086386473762
5,6.776776776776777,0.7391599540581201
5,6.786786786786787,0.7644582245004228
5,6.796796796796797,0.7682694362832119
5,6.806806806806807,0.7743212752214611
5,6.816816816816817,0.7695062304013892
5,6.826826826826827,0.7629207042668421
5,6.836836836836837,0.7418118781970496
5,6.846846846846847,0.7129796719166418
5,6.856856856856857,0.6740941439997746
5,6.866866866866867,0.6337509466579012
5,6.876876876876877,0.5944911132476732
5,6.886886886886887,0.5516075128622261
5,6.896896896896897,0.490633259189008
5,6.906906906906907,0.4427433944833913
5,6.916916916916917,0.40150497108646205
5,6.926926926926927,0.3327552918405345
5,6.936936936936937,0.30893546267915356
5,6.946946946946947,0.25235349775915683
5,6.956956956956957,0.19809992503231663
5,6.966966966966967,0.1625039144944842
5,6.976976976976977,0.12794566678229946
5,6.986986986986987,0.10130140968749475
5,6.996996996996997,0.08114602914850814
5,7.007007007007007,0.04734105753587666
5,7.017017017017017,0.03225128527651376
5,7.027027027027027,0.020866605869711435
5,7.037037037037037,0.00640728686495605
5,7.047047047047047,-0.0036288285179727053
5,7.057057057057057,-0.003040955375908985
5,7.067067067067067,0.0033646294508817166
5,7.077077077077077,0.0013975982089076313
5,7.087087087087087,0.0007509238423234803
5,7.097097097097097,-0.0013695983042298987
5,7.107107107107107,0.00680256125664982
5,7.117117117117117,-0.006094491243744681
5,7.127127127127127,-0.012185367390463954
5,7.137137137137137,-0.006137749142478626
5,7.147147147147147,-0.02430218145802851
5,7.157157157157157,-0.042949828161364875
5,7.167167167167167,-0.06493358680326371
5,7.177177177177177,-0.08870409368462136
5,7.187187187187187,-0.1209554491057296
5,7.197197197197197,-0.15964382367469976
5,7.207207207207207,-0.19596885106727296
5,7.217217217217217,-0.2389817711314686
5,7.227227227227227,-0.29021808435041846
5,7.237237237237237,-0.3318361704126083
5,7.247247247247247,-0.3783144150713559
5,7.257257257257257,-0.4332384137843163
5,7.267267267267267,-0.4825943879710313
5,7.277277277277277,-0.53308711444159
5,7.287287287287287,-0.5798105431867306
5,7.297297297297297,-0.6287666108978659
5,7.307307307307307,-0.6689414851610958
5,7.317317317317317,-0.7075554711541548
5,7.327327327327327,-0.730248345991857
5,7.337337337337337,-0.7573389654974398
5,7.347347347347347,-0.778538673098098
5,7.357357357357357,-0.7674578145582006
5,7.367367367367367,-0.7698238637548279
5,7.377377377377377,-0.7659468936707933
5,7.387387387387387,-0.7520128540058212
5,7.397397397397397,-0.7168709374305213
5,7.407407407407407,-0.6899889163908077
5,7.4174174174174174,-0.6269902459153771
5,7.4274274274274275,-0.5891559859056285
5,7.4374374374374375,-0.5109911543458138
5,7.4474474474474475,-0.4395148903227185
5,7.4574574574574575,-0.36585806620068895
5,7.4674674674674675,-0.2964419348235738
5,7.4774774774774775,-0.19879851076813446
5,7.4874874874874875,-0.10986228487516865
5,7.4974974974974975,-0.014630565574577054
5,7.5075075075075075,0.06333574563817296
5,7.5175175175175175,0.1582203037440921
5,7.5275275275275275,0.2434777589302323
5,7.5375375375375375,0.3347716106326859
5,7.5475475475475475,0.39973348489551785
5,7.5575575575575575,0.48407288602972276
5,7.5675675675675675,0.5380282608414599
5,7.5775775775775776,0.6110880227421576
5,7.587587587587588,0.6726580505675891
5,7.597597597597598,0.7067028377520294
5,7.607607607607608,0.7320113610915719
5,7.617617617617618,0.7590350890619616
5,7.627627627627628,0.773223644155786
5,7.637637637637638,0.780750088899001
5,7.647647647647648,0.7700915379986267
5,7.657657657657658,0.7623634507063166
5,7.667667667667668,0.7510297817544318
5,7.677677677677678,0.7233787094757231
5,7.687687687687688,0.6765741634820279
5,7.697697697697698,0.6471621102366053
5,7.707707707707708,0.6053124621977414
5,7.717717717717718,0.5521093109263986
5,7.727727727727728,0.5017610945112182
5,7.737737737737738,0.4484358940015228
5,7.747747747747748,0.4076051745751513
5,7.757757757757758,0.35799707045940865
5,7.767767767767768,0.3015863355823569
5,7.777777777777778,0.2631025054156535
5,7.787787787787788,0.21533221517258264
5,7.797797797797798,0.17208820749142595
5,7.807807807807808,0.13852940326635438
5,7.817817817817818,0.11576183926710196
5,7.827827827827828,0.08346481809384103
5,7.837837837837838,0.05390713232807995
5,7.847847847847848,0.028536247064692447
5,7.857857857857858,0.022298863400664982
5,7.867867867867868,0.010071595046734959
5,7.877877877877878,0.01859564837186797
5,7.887887887887888,0.008532538659954219
5,7.897897897897898,0.009556894388083268
5,7.907907907907908,-0.002510717203151372
5,7.917917917917918,0.000508134740531066
5,7.927927927927928,-0.0008463681478585445
5,7.937937937937938,0.010764050478912428
5,7.947947947947948,-0.004680725281592541
5,7.957957957957958,-0.013450658884482415
5,7.967967967967968,-0.01923943999244972
5,7.977977977977978,-0.01662574722710245
5,7.987987987987988,-0.048243730910732384
5,7.997997997997998,-0.06361227983706691
5,8.008008008008009,-0.09281401534260356
5,8.018018018018019,-0.11767894629470609
5,8.028028028028029,-0.14681704118636368
5,8.038038038038039,-0.1852737500677925
5,8.048048048048049,-0.22424515520291033
5,8.058058058058059,-0.2682703679443882
5,8.068068068068069,-0.31673554027464207
5,8.078078078078079,-0.36332417534076467
5,8.088088088088089,-0.41282523931575016
5,8.098098098098099,-0.4775799311127449
5,8.108108108108109,-0.5292519199667498
5,8.118118118118119,-0.5694376713451893
5,8.128128128128129,-0.6144802327917936
5,8.138138138138139,-0.6582503992852614
5,8.148148148148149,-0.6947611751260303
5,8.158158158158159,-0.7199262097887857
5,8.168168168168169,-0.7600511804667016
5,8.178178178178179,-0.7808377702017242
5,8.188188188188189,-0.7920166195870594
5,8.198198198198199,-0.7790020156844264
5,8.208208208208209,-0.774925588294004
5,8.218218218218219,-0.7525657115671874
5,8.228228228228229,-0.7267162196717559
5,8.238238238238239,-0.6856107968203521
5,8.248248248248249,-0.6402149554380107
5,8.258258258258259,-0.5891142480991819
5,8.268268268268269,-0.5305368999278028
5,8.278278278278279,-0.468788722411139
5,8.288288288288289,-0.38616955243161444
5,8.298298298298299,-0.3088667314097131
5,8.308308308308309,-0.22795042043103575
5,8.318318318318319,-0.12495704766023896
5,8.328328328328329,-0.041694117375241056
5,8.338338338338339,0.05485915978706084
5,8.348348348348349,0.13579950723353526
5,8.358358358358359,0.2249303105373678
5,8.368368368368369,0.31392909811757524
5,8.378378378378379,0.38919110247498967
5,8.388388388388389,0.4587983250784356
5,8.398398398398399,0.5277601240134382
5,8.408408408408409,0.5910187151211328
5,8.418418418418419,0.6445271694711256
5,8.428428428428429,0.6932259113731074
5,8.438438438438439,0.7256447889296298
5,8.448448448448449,0.7531615876586903
5,8.458458458458459,0.7803056039733394
5,8.468468468468469,0.7688815622025709
5,8.478478478478479,0.782108132228927
5,8.488488488488489,0.7718770303785182
5,8.498498498498499,0.754618897959298
5,8.508508508508509,0.7289563041799356
5,8.518518518518519,0.6977569093354841
5,8.528528528528529,0.6539933975072281
5,8.538538538538539,0.6162629142270729
5,8.548548548548549,0.5757515061508579
5,8.558558558558559,0.5307180170000109
5,8.568568568568569,0.4611353454198398
5,8.578578578578579,0.423510342152218
5,8.588588588588589,0.37154108071485825
5,8.598598598598599,0.3343454075827877
5,8.608608608608609,0.2732991998230294
5,8.618618618618619,0.22616245957452735
5,8.62862862862863,0.175745235353803
5,8.63863863863864,0.1540339810485276
5,8.64864864864865,0.1189877234674399
5,8.65865865865866,0.08601076495516101
5,8.66866866866867,0.06051849678406836
5,8.67867867867868,0.03732885784397705
5,8.68868868868869,0.02916534589379796
5,8.6986986986987,0.009618655535402858
5,8.70870870870871,0.012676571867732517
5,8.71871871871872,-0.012027717510906703
5,8.72872872872873,-0.004486602731453757
5,8.73873873873874,-0.004417308757461336
5,8.74874874874875,-0.007666042765179824
5,8.75875875875876,-0.002256577390227737
5,8.76876876876877,-0.0004446772072283879
5,8.77877877877878,-0.00511978305734466
5,8.78878878878879,-0.01675456473706744
5,8.7987987987988,-0.014646090108121379
5,8.80880880880881,-0.027693716359980528
5,8.81881881881882,-0.04593716665474689
5,8.82882882882883,-0.04961009260849464
5,8.83883883883884,-0.08329250895022325
5,8.84884884884885,-0.11215642882879336
5,8.85885885885886,-0.1408752947567937
5,8.86886886886887,-0.1811211927024876
5,8.87887887887888,-0.220509769677629
5,8.88888888888889,-0.25914023466592256
5,8.8988988988989,-0.3093671422804081
5,8.90890890890891,-0.3535264347401268
5,8.91891891891892,-0.39719649441437627
5,8.92892892892893,-0.45877253519747746
5,8.93893893893894,-0.50528278785589
5,8.94894894894895,-0.5477678886132008
5,8.95895895895896,-0.601727705157241
5,8.96896896896897,-0.6469610004446347
5,8.97897897897898,-0.673440555000839
5,8.98898898898899,-0.7223786141605525
5,8.998998998999,-0.7437274880988504
5,9.00900900900901,-0.7663960659929173
5,9.01901901901902,-0.769105710335702
5,9.02902902902903,-0.7808699123287941
5,9.03903903903904,-0.7755736597316438
5,9.04904904904905,-0.7549778565921338
5,9.05905905905906,-0.7354736543965693
5,9.06906906906907,-0.693667213070843
5,9.07907907907908,-0.6656145587602557
5,9.08908908908909,-0.6081435338761446
5,9.0990990990991,-0.5436769747793412
5,9.10910910910911,-0.47660659782047793
5,9.11911911911912,-0.4132751436894868
5,9.12912912912913,-0.32788400259692413
5,9.13913913913914,-0.2446020902523117
5,9.14914914914915,-0.1679482770062433
5,9.15915915915916,-0.06623894184197472
5,9.16916916916917,0.02798603789604133
5,9.17917917917918,0.12021764652724386
5,9.18918918918919,0.20644432057921425
5,9.1991991991992,0.29111558865779924
5,9.20920920920921,0.36441091524369557
5,9.21921921921922,0.44190394733397287
5,9.22922922922923,0.5167847236680975
5,9.23923923923924,0.5776803156754391
5,9.24924924924925,0.6265953888564487
5,9.25925925925926,0.6835075707345952
5,9.26926926926927,0.7291761005316462
5,9.27927927927928,0.7473874007154224
5,9.28928928928929,0.7621521365779577
5,9.2992992992993,0.7712632560014181
5,9.30930930930931,0.7828324189074186
5,9.31931931931932,0.7842776979914025
5,9.32932932932933,0.7560846966231042
5,9.33933933933934,0.7239268112395867
5,9.34934934934935,0.7017563866785032
5,9.35935935935936,0.6569106757256746
5,9.36936936936937,0.6172853062357587
5,9.37937937937938,0.5748173739504189
5,9.38938938938939,0.5298515657581538
5,9.3993993993994,0.483887270208625
5,9.40940940940941,0.4300801868628882
5,9.41941941941942,0.3846047889806723
5,9.42942942942943,0.323419127902765
5,9.43943943943944,0.27119938041453634
5,9.44944944944945,0.2356271466108559
5,9.45945945945946,0.19487115449048964
5,9.46946946946947,0.1549988020709048
5,9.47947947947948,0.12648553312016061
5,9.48948948948949,0.09915209881172726
5,9.4994994994995,0.07959030766303196
5,9.50950950950951,0.05312560924596869
5,9.51951951951952,0.03668922410798314
5,9.52952952952953,0.023153099646680247
5,9.53953953953954,0.0035227736474567903
5,9.54954954954955,0.0006662677254951899
5,9.55955955955956,0.006067468527972156
5,9.56956956956957,-0.006597745377071658
5,9.57957957957958,-0.0012912946391335908
5,9.58958958958959,-0.00043325531954136555
5,9.5995995995996,-0.012195988961163405
5,9.60960960960961,-0.006355926248884588
5,9.61961961961962,-0.003207139033373406
5,9.62962962962963,-0.013531102241100485
5,9.63963963963964,-0.02152608866717424
5,9.64964964964965,-0.04012343598298649
5,9.65965965965966,-0.04833806228350071
5,9.66966966966967,-0.06782221367102664
5,9.67967967967968,-0.1063644798182639
5,9.68968968968969,-0.12150935621206078
5,9.6996996996997,-0.1557028868056571
5,9.70970970970971,-0.20313375240471185
5,9.71971971971972,-0.253777722146264
5,9.72972972972973,-0.2912054729009995
5,9.73973973973974,-0.3450722832132601
5,9.74974974974975,-0.39287089324505187
5,9.75975975975976,-0.4334612345637863
5,9.76976976976977,-0.49261152602041725
5,9.77977977977978,-0.544203928930602
5,9.78978978978979,-0.5836358281149022
5,9.7997997997998,-0.6396201304104213
5,9.80980980980981,-0.68075429312904
5,9.81981981981982,-0.707753109677795
5,9.82982982982983,-0.7451594527687342
5,9.83983983983984,-0.7544575637050062
5,9.84984984984985,-0.7754733089874846
5,9.85985985985986,-0.7758387692897425
5,9.86986986986987,-0.7889172407819782
5,9.87987987987988,-0.7650279076851388
5,9.88988988988989,-0.7382019519650176
5,9.8998998998999,-0.710171536078753
5,9.90990990990991,-0.6721025256816217
5,9.91991991991992,-0.6222288700231641
5,9.92992992992993,-0.561615532817261
5,9.93993993993994,-0.49839054185227094
5,9.94994994994995,-0.4114554047616056
5,9.95995995995996,-0.3535370658381138
5,9.96996996996997,-0.2596968809673521
5,9.97997997997998,-0.1887586581132962
5,9.98998998998999,-0.08457447564616952
5,10.0,0.0038939732610162635
