Subject_ID,Time,PPG
16,0.0,0.009599353103559994
16,0.01001001001001001,0.09188203055276732
16,0.02002002002002002,0.17397114970986605
16,0.03003003003003003,0.2765383414864277
16,0.04004004004004004,0.33961919158369946
16,0.050050050050050046,0.419659498417216
16,0.06006006006006006,0.5018177012493085
16,0.07007007007007007,0.5651615635278515
16,0.08008008008008008,0.6169761289781343
16,0.09009009009009009,0.6721068837562564
16,0.10010010010010009,0.7164488264089905
16,0.11011011011011011,0.7446249269895171
16,0.12012012012012012,0.771141638728971
16,0.13013013013013014,0.7801068811471523
16,0.14014014014014015,0.7818786927944552
16,0.15015015015015015,0.7707776113968235
16,0.16016016016016016,0.765351782506206
16,0.17017017017017017,0.7371384918991816
16,0.18018018018018017,0.7164694727590405
16,0.19019019019019018,0.6739141540313301
16,0.20020020020020018,0.6333695667008162
16,0.21021021021021022,0.5937369612014112
16,0.22022022022022023,0.5524670765621899
16,0.23023023023023023,0.501896851176452
16,0.24024024024024024,0.45207242025495675
16,0.2502502502502503,0.3886487908544296
16,0.2602602602602603,0.3425680313789687
16,0.2702702702702703,0.2950069602924414
16,0.2802802802802803,0.25630265661441715
16,0.2902902902902903,0.20059751900835454
16,0.3003003003003003,0.16411693078414386
16,0.3103103103103103,0.1285185137028112
16,0.3203203203203203,0.10019797610715003
16,0.3303303303303303,0.07772792881778437
16,0.34034034034034033,0.049389435668869365
16,0.35035035035035034,0.03451407849253926
16,0.36036036036036034,0.019897083631606784
16,0.37037037037037035,0.005610143035483379
16,0.38038038038038036,0.0076362265949093755
16,0.39039039039039036,0.0042276576005912435
16,0.40040040040040037,-0.0020996153489646944
16,0.41041041041041043,-0.005195244669736165
16,0.42042042042042044,-0.0020787005716489835
16,0.43043043043043044,-0.0006601456512044356
16,0.44044044044044045,0.0010519613429320579
16,0.45045045045045046,-0.01376363143362912
16,0.46046046046046046,-0.008385989851320075
16,0.47047047047047047,-0.02292816809601558
16,0.4804804804804805,-0.02514970842676582
16,0.4904904904904905,-0.048381434588530316
16,0.5005005005005005,-0.06765729042875598
16,0.5105105105105106,-0.09665814412805526
16,0.5205205205205206,-0.11322916466879401
16,0.5305305305305306,-0.15041686115366618
16,0.5405405405405406,-0.2028684004524569
16,0.5505505505505506,-0.24217408194057355
16,0.5605605605605606,-0.28172942730650696
16,0.5705705705705706,-0.32905183036309776
16,0.5805805805805806,-0.3770850726568786
16,0.5905905905905906,-0.43327641448893783
16,0.6006006006006006,-0.4810875560158258
16,0.6106106106106106,-0.5306248708250667
16,0.6206206206206206,-0.5947997870775321
16,0.6306306306306306,-0.6191705874257206
16,0.6406406406406406,-0.6616447133282052
16,0.6506506506506506,-0.7031744255410218
16,0.6606606606606606,-0.7344386639037653
16,0.6706706706706707,-0.7562345771952158
16,0.6806806806806807,-0.7636572292087391
16,0.6906906906906907,-0.7770552836920077
16,0.7007007007007007,-0.7759958709935488
16,0.7107107107107107,-0.7721178768921693
16,0.7207207207207207,-0.7462843665164307
16,0.7307307307307307,-0.7174685498955528
16,0.7407407407407407,-0.6815342202250692
16,0.7507507507507507,-0.6317211932958178
16,0.7607607607607607,-0.5801851594258621
16,0.7707707707707707,-0.5143474047885661
16,0.7807807807807807,-0.4429678193998995
16,0.7907907907907907,-0.3740754215887674
16,0.8008008008008007,-0.2915609837400943
16,0.8108108108108109,-0.19587323956841832
16,0.8208208208208209,-0.1053062160488048
16,0.8308308308308309,-0.022693924818404182
16,0.8408408408408409,0.058246414243548345
16,0.8508508508508509,0.15879902633411538
16,0.8608608608608609,0.24335250497839245
16,0.8708708708708709,0.3253608302475645
16,0.8808808808808809,0.40983536926239217
16,0.8908908908908909,0.4843352520535388
16,0.9009009009009009,0.5482399840113679
16,0.9109109109109109,0.616330558542186
16,0.9209209209209209,0.6589028130462367
16,0.9309309309309309,0.6891496865999847
16,0.9409409409409409,0.7351226670347534
16,0.950950950950951,0.7486788900515763
16,0.960960960960961,0.7713120892081439
16,0.970970970970971,0.7851868541524947
16,0.980980980980981,0.7734882659879907
16,0.990990990990991,0.7659215335906254
16,1.001001001001001,0.7477866883489407
16,1.011011011011011,0.7249606998422219
16,1.021021021021021,0.6819416736223468
16,1.031031031031031,0.642129097897389
16,1.0410410410410411,0.5975308821308815
16,1.0510510510510511,0.5497752371318142
16,1.0610610610610611,0.5093609286685905
16,1.0710710710710711,0.45885822834284695
16,1.0810810810810811,0.40518690936758156
16,1.0910910910910911,0.35997176274451187
16,1.1011011011011012,0.30981386687594936
16,1.1111111111111112,0.25957791488023446
16,1.1211211211211212,0.21900825409834496
16,1.1311311311311312,0.16859882699991055
16,1.1411411411411412,0.1394640709497161
16,1.1511511511511512,0.10370490706371774
16,1.1611611611611612,0.08886950937561716
16,1.1711711711711712,0.061368749559048516
16,1.1811811811811812,0.04560569679309094
16,1.1911911911911912,0.02599540481327379
16,1.2012012012012012,0.016143901607613146
16,1.2112112112112112,-0.0009558335835899764
16,1.2212212212212212,-0.007736190133968715
16,1.2312312312312312,-0.008416315798395012
16,1.2412412412412412,0.0040474778235571095
16,1.2512512512512513,-0.0006677610807985622
16,1.2612612612612613,-0.0005079197938904365
16,1.2712712712712713,0.0013630874051108986
16,1.2812812812812813,-0.0043642374580895186
16,1.2912912912912913,-0.008362307721710545
16,1.3013013013013013,-0.016706142076538998
16,1.3113113113113113,-0.03556121222685003
16,1.3213213213213213,-0.037277580449202104
16,1.3313313313313313,-0.06128719209444585
16,1.3413413413413413,-0.08525659762754836
16,1.3513513513513513,-0.11511497880800312
16,1.3613613613613613,-0.1498183894304857
16,1.3713713713713713,-0.19116122058955165
16,1.3813813813813813,-0.22183576834920757
16,1.3913913913913913,-0.2648402146213291
16,1.4014014014014013,-0.3135868694007874
16,1.4114114114114114,-0.37610168795982046
16,1.4214214214214214,-0.4156343246949911
16,1.4314314314314314,-0.4682242439041739
16,1.4414414414414414,-0.520622721143159
16,1.4514514514514514,-0.5699193383116873
16,1.4614614614614614,-0.6120828446779626
16,1.4714714714714714,-0.6596405690901275
16,1.4814814814814814,-0.6942218428109074
16,1.4914914914914914,-0.7291555913288993
16,1.5015015015015014,-0.7510376509492581
16,1.5115115115115114,-0.7662116335330403
16,1.5215215215215214,-0.7787937991217105
16,1.5315315315315314,-0.7820283512670021
16,1.5415415415415414,-0.7660027421934638
16,1.5515515515515514,-0.7561107617007173
16,1.5615615615615615,-0.7337593976092388
16,1.5715715715715715,-0.6941416863940298
16,1.5815815815815815,-0.6477528519243081
16,1.5915915915915915,-0.5933698203073698
16,1.6016016016016015,-0.5309796931617475
16,1.6116116116116117,-0.4744638794074044
16,1.6216216216216217,-0.3858374083862052
16,1.6316316316316317,-0.30512114498533927
16,1.6416416416416417,-0.2191240792087368
16,1.6516516516516517,-0.14226060894161413
16,1.6616616616616617,-0.053984997468370675
16,1.6716716716716717,0.044695405660766664
16,1.6816816816816818,0.13139081751674006
16,1.6916916916916918,0.23184803473671967
16,1.7017017017017018,0.3110123762364513
16,1.7117117117117118,0.3894273976369538
16,1.7217217217217218,0.4674109779657819
16,1.7317317317317318,0.5233173885806679
16,1.7417417417417418,0.5965392399646918
16,1.7517517517517518,0.6339259760984655
16,1.7617617617617618,0.6912699025079506
16,1.7717717717717718,0.720839234560762
16,1.7817817817817818,0.7498728892044596
16,1.7917917917917918,0.7736016268220725
16,1.8018018018018018,0.7751304637166762
16,1.8118118118118118,0.7812489499614946
16,1.8218218218218218,0.7706599314497662
16,1.8318318318318318,0.7588040431575748
16,1.8418418418418419,0.7205973536989
16,1.8518518518518519,0.6910492071565324
16,1.8618618618618619,0.6542644922547827
16,1.8718718718718719,0.614196415358994
16,1.8818818818818819,0.556424462437823
16,1.8918918918918919,0.526616346269239
16,1.901901901901902,0.47372354777216324
16,1.911911911911912,0.42192445927244715
16,1.921921921921922,0.3663031332727728
16,1.931931931931932,0.31169512280627093
16,1.941941941941942,0.280726146544675
16,1.951951951951952,0.22841384892546465
16,1.961961961961962,0.1888499110260048
16,1.971971971971972,0.15419984364516934
16,1.981981981981982,0.11438042430745865
16,1.991991991991992,0.09271600646337036
16,2.002002002002002,0.06388737563670464
16,2.012012012012012,0.04589250612909073
16,2.022022022022022,0.0255336838402448
16,2.032032032032032,0.01798050034518793
16,2.042042042042042,0.010094820605777021
16,2.052052052052052,0.011687244916776945
16,2.062062062062062,-0.007114473036679494
16,2.0720720720720722,0.005102528058169181
16,2.0820820820820822,0.003976666843590558
16,2.0920920920920922,0.008987164761440021
16,2.1021021021021022,-0.00793214517203858
16,2.1121121121121122,-0.01110031525746082
16,2.1221221221221223,-0.014706506844264371
16,2.1321321321321323,-0.01409227044942497
16,2.1421421421421423,-0.029134773279398063
16,2.1521521521521523,-0.034309000968850346
16,2.1621621621621623,-0.0641432837810394
16,2.1721721721721723,-0.07534856684630063
16,2.1821821821821823,-0.11043564153057177
16,2.1921921921921923,-0.1382847152565804
16,2.2022022022022023,-0.17597176295611416
16,2.2122122122122123,-0.21618561423407473
16,2.2222222222222223,-0.25942049208214024
16,2.2322322322322323,-0.3026456549255395
16,2.2422422422422423,-0.3467409352548953
16,2.2522522522522523,-0.40537287224202123
16,2.2622622622622623,-0.45797781468737314
16,2.2722722722722724,-0.5073776113237953
16,2.2822822822822824,-0.5535943112168861
16,2.2922922922922924,-0.6032972551898779
16,2.3023023023023024,-0.6536242899039194
16,2.3123123123123124,-0.6836781971422841
16,2.3223223223223224,-0.7140931006121369
16,2.3323323323323324,-0.7472794023761813
16,2.3423423423423424,-0.7654306355398468
16,2.3523523523523524,-0.7748902890972923
16,2.3623623623623624,-0.7781486010791038
16,2.3723723723723724,-0.770547378806583
16,2.3823823823823824,-0.7603437749352773
16,2.3923923923923924,-0.7350268268783445
16,2.4024024024024024,-0.6994353356587285
16,2.4124124124124124,-0.6629075252367276
16,2.4224224224224224,-0.6110000394763146
16,2.4324324324324325,-0.5549617286266881
16,2.4424424424424425,-0.4832380031070327
16,2.4524524524524525,-0.40799129610564916
16,2.4624624624624625,-0.3289818833154571
16,2.4724724724724725,-0.2438756841606115
16,2.4824824824824825,-0.1607849077558846
16,2.4924924924924925,-0.07356465206293082
16,2.5025025025025025,0.02732448798030336
16,2.5125125125125125,0.1083329088164401
16,2.5225225225225225,0.20263897975295775
16,2.5325325325325325,0.28270227601137826
16,2.5425425425425425,0.3614771456660712
16,2.5525525525525525,0.4447069486857485
16,2.5625625625625625,0.5077430538380838
16,2.5725725725725725,0.5827099311480232
16,2.5825825825825826,0.6435307918006544
16,2.5925925925925926,0.6805771322341754
16,2.6026026026026026,0.7295671349490473
16,2.6126126126126126,0.7478443309511603
16,2.6226226226226226,0.7606569270386357
16,2.6326326326326326,0.7817836218811105
16,2.6426426426426426,0.7771210738330904
16,2.6526526526526526,0.7745550647102193
16,2.6626626626626626,0.7499518483745025
16,2.6726726726726726,0.7297657370638176
16,2.6826826826826826,0.7021166735635676
16,2.6926926926926926,0.6581983640339485
16,2.7027027027027026,0.617512182965202
16,2.7127127127127126,0.5757493097491333
16,2.7227227227227226,0.537307883759379
16,2.7327327327327327,0.48081468280782735
16,2.7427427427427427,0.4345630145762918
16,2.7527527527527527,0.3850216591327091
16,2.7627627627627627,0.3274521620747602
16,2.7727727727727727,0.27983443626838544
16,2.7827827827827827,0.23830348947172197
16,2.7927927927927927,0.19429290246592
16,2.8028028028028027,0.1484810456468317
16,2.8128128128128127,0.12986270574776787
16,2.8228228228228227,0.08492732973514343
16,2.8328328328328327,0.06803172026695227
16,2.8428428428428427,0.054985154658634086
16,2.8528528528528527,0.03414986344889603
16,2.8628628628628627,0.014033177806818582
16,2.8728728728728727,0.00587861577396219
16,2.8828828828828827,-0.005832243529081828
16,2.8928928928928928,0.002780048801818193
16,2.9029029029029028,-0.000128314184813914
16,2.9129129129129128,-0.00034415551398903803
16,2.9229229229229228,0.00885416164476682
16,2.932932932932933,-0.006916214757602657
16,2.942942942942943,-0.0016900973239929113
16,2.952952952952953,-0.007249256383847
16,2.962962962962963,-0.01374818619366684
16,2.972972972972973,-0.021232865946366013
16,2.982982982982983,-0.04061895643687338
16,2.992992992992993,-0.05077444663540477
16,3.003003003003003,-0.07146171731113514
16,3.013013013013013,-0.10580523424284972
16,3.023023023023023,-0.13203309290269016
16,3.033033033033033,-0.16437358892942716
16,3.043043043043043,-0.2133131936744291
16,3.053053053053053,-0.2444467547650842
16,3.063063063063063,-0.2950729618024008
16,3.073073073073073,-0.3467494470696206
16,3.083083083083083,-0.39383669840079977
16,3.093093093093093,-0.4484916589287646
16,3.103103103103103,-0.4915509597845827
16,3.113113113113113,-0.5474688727252436
16,3.123123123123123,-0.5931866010377268
16,3.133133133133133,-0.625048643633234
16,3.143143143143143,-0.6753506708789104
16,3.153153153153153,-0.7037520298482717
16,3.163163163163163,-0.731621402528367
16,3.173173173173173,-0.7647460183410607
16,3.183183183183183,-0.7684954415372074
16,3.193193193193193,-0.780420629518834
16,3.203203203203203,-0.7744968801789913
16,3.2132132132132134,-0.7607161818212158
16,3.2232232232232234,-0.7399052959672516
16,3.2332332332332334,-0.7182614275449618
16,3.2432432432432434,-0.6759058286881573
16,3.2532532532532534,-0.6172428831486121
16,3.2632632632632634,-0.5718979394279509
16,3.2732732732732734,-0.5048900527880965
16,3.2832832832832834,-0.4225016250601706
16,3.2932932932932935,-0.3582447229159534
16,3.3033033033033035,-0.26935765295167496
16,3.3133133133133135,-0.1795567217774718
16,3.3233233233233235,-0.08930205915130748
16,3.3333333333333335,-0.003047198021977386
16,3.3433433433433435,0.08537165632669175
16,3.3533533533533535,0.18110244375702808
16,3.3633633633633635,0.2720057279220221
16,3.3733733733733735,0.34463698666778786
16,3.3833833833833835,0.41960837322286404
16,3.3933933933933935,0.5103203985150163
16,3.4034034034034035,0.5663611278854879
16,3.4134134134134135,0.6186757747941098
16,3.4234234234234235,0.6752663062960652
16,3.4334334334334335,0.708900455842257
16,3.4434434434434436,0.7385679412191085
16,3.4534534534534536,0.7703067377079897
16,3.4634634634634636,0.7775246717594657
16,3.4734734734734736,0.7708544890305759
16,3.4834834834834836,0.7676623738052891
16,3.4934934934934936,0.7580455890227983
16,3.5035035035035036,0.7304694382932351
16,3.5135135135135136,0.719193981104749
16,3.5235235235235236,0.6853180646470632
16,3.5335335335335336,0.6287464149978422
16,3.5435435435435436,0.6003163962319382
16,3.5535535535535536,0.5407652662845954
16,3.5635635635635636,0.48880019949772624
16,3.5735735735735736,0.4432898558858516
16,3.5835835835835836,0.3919753798410106
16,3.5935935935935936,0.3408552940875561
16,3.6036036036036037,0.2978610894023755
16,3.6136136136136137,0.24247955554045653
16,3.6236236236236237,0.20946433801777117
16,3.6336336336336337,0.16828550497153227
16,3.6436436436436437,0.1271614153619844
16,3.6536536536536537,0.09689659283801891
16,3.6636636636636637,0.0728880598575415
16,3.6736736736736737,0.051193333891395625
16,3.6836836836836837,0.03126998979382657
16,3.6936936936936937,0.021945238464043306
16,3.7037037037037037,0.022365586687038558
16,3.7137137137137137,0.00651614269485822
16,3.7237237237237237,-0.007873194893963934
16,3.7337337337337337,-0.001922330940663644
16,3.7437437437437437,-0.0054970279771299905
16,3.7537537537537538,0.001141186103084942
16,3.7637637637637638,0.0029815349062872407
16,3.7737737737737738,-0.008455991697370057
16,3.7837837837837838,-0.0012496509403292408
16,3.793793793793794,-0.008863546427577492
16,3.803803803803804,-0.02522248802670818
16,3.813813813813814,-0.032406550737605476
16,3.823823823823824,-0.056796836682902356
16,3.833833833833834,-0.06302318256775084
16,3.843843843843844,-0.09121259510404629
16,3.853853853853854,-0.12902621346096455
16,3.863863863863864,-0.14540459644781756
16,3.873873873873874,-0.1903161865612613
16,3.883883883883884,-0.24208132359523712
16,3.893893893893894,-0.28132853348096853
16,3.903903903903904,-0.3339868979963672
16,3.913913913913914,-0.3796609230892928
16,3.923923923923924,-0.43424238377608226
16,3.933933933933934,-0.4843395907947026
16,3.943943943943944,-0.5283294347187858
16,3.953953953953954,-0.5773711888301929
16,3.963963963963964,-0.6126696605483616
16,3.973973973973974,-0.6707796359895376
16,3.983983983983984,-0.6963848813181315
16,3.993993993993994,-0.724313545968946
16,4.004004004004004,-0.7598511580647743
16,4.014014014014014,-0.7683136082061411
16,4.024024024024024,-0.7780274833109762
16,4.034034034034034,-0.7671976465758082
16,4.044044044044044,-0.7656890531536947
16,4.054054054054054,-0.7551878998042538
16,4.064064064064064,-0.7194673653859348
16,4.074074074074074,-0.6827291197680743
16,4.084084084084084,-0.6329288012184411
16,4.094094094094094,-0.5871407121885774
16,4.104104104104104,-0.5219588141571231
16,4.114114114114114,-0.4490282025708341
16,4.124124124124124,-0.3713693024218319
16,4.134134134134134,-0.2879425426506822
16,4.1441441441441444,-0.20364691288652928
16,4.1541541541541545,-0.1047609358962339
16,4.1641641641641645,-0.016096487241912358
16,4.1741741741741745,0.06518024892533102
16,4.1841841841841845,0.15189660607748715
16,4.1941941941941945,0.2462230819418065
16,4.2042042042042045,0.3228915883571284
16,4.2142142142142145,0.4030407956669394
16,4.2242242242242245,0.4793618776152989
16,4.2342342342342345,0.5445432139549653
16,4.2442442442442445,0.6127699174610064
16,4.2542542542542545,0.6493599915888485
16,4.2642642642642645,0.7017130081502467
16,4.2742742742742745,0.730507471632212
16,4.2842842842842845,0.7627766803349507
16,4.2942942942942945,0.7692574771128706
16,4.3043043043043046,0.7814706115819489
16,4.314314314314315,0.7746404824917485
16,4.324324324324325,0.7623917198577201
16,4.334334334334335,0.7523081197721856
16,4.344344344344345,0.7242769516234022
16,4.354354354354355,0.6884038768054682
16,4.364364364364365,0.6440357024035516
16,4.374374374374375,0.5963670940774686
16,4.384384384384385,0.5534232087953904
16,4.394394394394395,0.5083545186616226
16,4.404404404404405,0.4624069127631097
16,4.414414414414415,0.39880503663433725
16,4.424424424424425,0.3528009817404509
16,4.434434434434435,0.3062716197228233
16,4.444444444444445,0.2579926955902157
16,4.454454454454455,0.2240985672136579
16,4.464464464464465,0.17460904351601725
16,4.474474474474475,0.13799976205763062
16,4.484484484484485,0.10964533658050243
16,4.494494494494495,0.08315621025897699
16,4.504504504504505,0.06380529406488969
16,4.514514514514515,0.028852558312491547
16,4.524524524524525,0.02527478215415251
16,4.534534534534535,0.016048075110478063
16,4.544544544544545,0.007472089598372118
16,4.554554554554555,0.0016601252603286442
16,4.564564564564565,0.009216952530854777
16,4.574574574574575,-0.0041649028484422096
16,4.584584584584585,9.174328780283638e-05
16,4.594594594594595,-0.0021362987315236767
16,4.604604604604605,0.004928283886564215
16,4.614614614614615,0.0003341861360700738
16,4.624624624624625,-0.012017266855246369
16,4.634634634634635,-0.015916119079803802
16,4.644644644644645,-0.03293803390455721
16,4.654654654654655,-0.04725198506566916
16,4.664664664664665,-0.06772775174019173
16,4.674674674674675,-0.09287636476543394
16,4.684684684684685,-0.12903311388806948
16,4.694694694694695,-0.15502748617138207
16,4.704704704704705,-0.1906899376183549
16,4.714714714714715,-0.22870530962210714
16,4.724724724724725,-0.2621627671836029
16,4.734734734734735,-0.3158526462287129
16,4.744744744744745,-0.373491676882
16,4.754754754754755,-0.4142396977769426
16,4.764764764764765,-0.47193306612932223
16,4.774774774774775,-0.5099980972886491
16,4.784784784784785,-0.5719906749164875
16,4.794794794794795,-0.6141379628564357
16,4.804804804804805,-0.6577359236645783
16,4.814814814814815,-0.6882763430960657
16,4.824824824824825,-0.7245796496252411
16,4.834834834834835,-0.7575399358317297
16,4.844844844844845,-0.7619779648535402
16,4.854854854854855,-0.7810976530383913
16,4.864864864864865,-0.7745280637703641
16,4.874874874874875,-0.7696745731361905
16,4.884884884884885,-0.7638013625846369
16,4.894894894894895,-0.7208198782875817
16,4.904904904904905,-0.6846188592886812
16,4.914914914914915,-0.6385907273890874
16,4.924924924924925,-0.5963436207533155
16,4.934934934934935,-0.5314321439164973
16,4.944944944944945,-0.465234959196171
16,4.954954954954955,-0.38921074051893034
16,4.964964964964965,-0.3120966512610307
16,4.974974974974975,-0.22576701903894653
16,4.984984984984985,-0.13699850063397304
16,4.994994994994995,-0.041760262759088694
16,5.005005005005005,0.044480502491109936
16,5.015015015015015,0.13294998896724292
16,5.025025025025025,0.2259487553499895
16,5.035035035035035,0.30693210573452395
16,5.045045045045045,0.3943615813411895
16,5.055055055055055,0.4693242790635039
16,5.065065065065065,0.5324180281973355
16,5.075075075075075,0.5903520509461875
16,5.085085085085085,0.6455742129577915
16,5.095095095095095,0.6869245509602281
16,5.105105105105105,0.7332459114359667
16,5.115115115115115,0.7550054868737748
16,5.125125125125125,0.7708341125654289
16,5.135135135135135,0.7740507926445441
16,5.145145145145145,0.7745082997640856
16,5.155155155155155,0.7670456317157285
16,5.165165165165165,0.7447597374804664
16,5.175175175175175,0.718403948216846
16,5.185185185185185,0.6879673730124545
16,5.195195195195195,0.6587796849950606
16,5.205205205205205,0.6098456494111874
16,5.215215215215215,0.5691920994173756
16,5.225225225225225,0.5255341809859924
16,5.235235235235235,0.4692826972454823
16,5.245245245245245,0.42052667100975716
16,5.255255255255255,0.3769456239245165
16,5.265265265265265,0.32056921930279686
16,5.275275275275275,0.26981647655226376
16,5.285285285285285,0.22509791674008212
16,5.295295295295295,0.1872865016439575
16,5.305305305305305,0.14278121397305837
16,5.315315315315315,0.11771560421353806
16,5.325325325325325,0.09269343776825767
16,5.335335335335335,0.06445192506564318
16,5.345345345345345,0.04226988928859398
16,5.355355355355355,0.04310599474806279
16,5.365365365365365,0.02672752803345384
16,5.375375375375375,0.010612389163368055
16,5.385385385385385,-0.00021402331678554033
16,5.395395395395395,-0.004494958210659625
16,5.405405405405405,-0.00032170566083196883
16,5.415415415415415,0.0014018537205396585
16,5.425425425425425,-0.00330876891077567
16,5.435435435435435,-0.0004948136250441869
16,5.445445445445445,0.0038127116759622123
16,5.455455455455455,-0.0068594150828047784
16,5.465465465465465,-0.016473640498552454
16,5.475475475475475,-0.023164821241250293
16,5.485485485485485,-0.04224008363802927
16,5.495495495495495,-0.05170861537661843
16,5.505505505505505,-0.07498569916624995
16,5.515515515515515,-0.10260123149977018
16,5.525525525525525,-0.13695101191975217
16,5.535535535535535,-0.17550339767609233
16,5.545545545545545,-0.214996382861658
16,5.555555555555555,-0.25088895742927575
16,5.565565565565565,-0.30619324887077415
16,5.575575575575575,-0.35625750146017227
16,5.585585585585585,-0.3999274170068844
16,5.595595595595595,-0.4629016281368188
16,5.605605605605605,-0.5040006295596127
16,5.615615615615615,-0.5566923474334012
16,5.625625625625625,-0.6052998631735913
16,5.635635635635635,-0.6495038683089981
16,5.645645645645645,-0.6938620630590664
16,5.655655655655655,-0.7178003318270201
16,5.665665665665665,-0.7426774068170028
16,5.675675675675675,-0.764197556752074
16,5.685685685685685,-0.7745717352312298
16,5.6956956956956954,-0.7721867355204503
16,5.7057057057057055,-0.7677504923832401
16,5.7157157157157155,-0.7612547715142761
16,5.7257257257257255,-0.7383327537905208
16,5.7357357357357355,-0.7108259584482056
16,5.7457457457457455,-0.6607144269399644
16,5.7557557557557555,-0.609367301385982
16,5.7657657657657655,-0.5524507121568387
16,5.7757757757757755,-0.47915493474687376
16,5.7857857857857855,-0.4019526095981824
16,5.7957957957957955,-0.33499465403522155
16,5.8058058058058055,-0.2402005648770446
16,5.8158158158158155,-0.1550226343471321
16,5.8258258258258255,-0.07300953712613845
16,5.8358358358358355,0.02329143408040122
16,5.8458458458458455,0.10771280565671662
16,5.8558558558558556,0.20266599236517277
16,5.865865865865866,0.2959736302139015
16,5.875875875875876,0.3783168535339465
16,5.885885885885886,0.44783870139737747
16,5.895895895895896,0.5127267228860118
16,5.905905905905906,0.5714023840159811
16,5.915915915915916,0.6301129547166041
16,5.925925925925926,0.6738548804482984
16,5.935935935935936,0.7231139467880244
16,5.945945945945946,0.7492855112528578
16,5.955955955955956,0.7731310358744786
16,5.965965965965966,0.7869128858369463
16,5.975975975975976,0.786114095086137
16,5.985985985985986,0.7694836815469627
16,5.995995995995996,0.7499552704877351
16,6.006006006006006,0.728284292458304
16,6.016016016016016,0.7095211336379001
16,6.026026026026026,0.6717522027083176
16,6.036036036036036,0.622323216036486
16,6.046046046046046,0.5832062498998213
16,6.056056056056056,0.5398321743227458
16,6.066066066066066,0.4794509833945867
16,6.076076076076076,0.4322974041728964
16,6.086086086086086,0.372046183314099
16,6.096096096096096,0.32781939702270274
16,6.106106106106106,0.2788240412988276
16,6.116116116116116,0.2385639476473989
16,6.126126126126126,0.1987426148498225
16,6.136136136136136,0.15717735399293228
16,6.146146146146146,0.12578578933312753
16,6.156156156156156,0.09616993953926337
16,6.166166166166166,0.06486011488206217
16,6.176176176176176,0.04202109391957812
16,6.186186186186186,0.026104026490072662
16,6.196196196196196,0.017878597075987934
16,6.206206206206206,0.010564386391000588
16,6.216216216216216,0.007353309845180239
16,6.226226226226226,-0.0010058623516638774
16,6.236236236236236,0.0006776727578947108
16,6.246246246246246,-0.0034233972761031316
16,6.256256256256256,0.0012131161425364334
16,6.266266266266266,0.010888571092717961
16,6.276276276276276,0.0005648631602839026
16,6.286286286286286,-0.0074092897052029875
16,6.296296296296296,-0.011796723609526466
16,6.306306306306306,-0.013924661784684728
16,6.316316316316316,-0.022343581418193034
16,6.326326326326326,-0.045579410621809285
16,6.336336336336336,-0.06730578406192624
16,6.346346346346346,-0.10109735952500536
16,6.356356356356356,-0.1362756657219683
16,6.366366366366366,-0.15617144639693523
16,6.376376376376376,-0.20204557727542444
16,6.386386386386386,-0.24945825412308723
16,6.396396396396396,-0.28575068893540784
16,6.406406406406406,-0.3467474552433588
16,6.416416416416417,-0.392965699215518
16,6.426426426426427,-0.4366045849087642
16,6.436436436436437,-0.5039891857551027
16,6.446446446446447,-0.5501514718430133
16,6.456456456456457,-0.5931696997020119
16,6.466466466466467,-0.6259850457029916
16,6.476476476476477,-0.6729830851738261
16,6.486486486486487,-0.7181069350155291
16,6.496496496496497,-0.7381600155453293
16,6.506506506506507,-0.772370201564156
16,6.516516516516517,-0.7619688850850879
16,6.526526526526527,-0.7816212245391616
16,6.536536536536537,-0.7779934791887717
16,6.546546546546547,-0.7648881383935082
16,6.556556556556557,-0.7429287963594388
16,6.566566566566567,-0.7069967560441596
16,6.576576576576577,-0.6634612260471592
16,6.586586586586587,-0.6248926107616949
16,6.596596596596597,-0.5755355745985294
16,6.606606606606607,-0.49735653929087204
16,6.616616616616617,-0.42140867189579284
16,6.626626626626627,-0.3391356475407341
16,6.636636636636637,-0.26262883787054436
16,6.646646646646647,-0.18423590417358168
16,6.656656656656657,-0.08980846998173278
16,6.666666666666667,-0.009360577721884748
16,6.676676676676677,0.08820034552992208
16,6.686686686686687,0.18643612275336632
16,6.696696696696697,0.25723705338012987
16,6.706706706706707,0.3495791629075289
16,6.716716716716717,0.4244066405138095
16,6.726726726726727,0.49229795160674056
16,6.736736736736737,0.5724964313103384
16,6.746746746746747,0.6266422593481592
16,6.756756756756757,0.6693263192448724
16,6.766766766766767,0.7061923705409422
16,6.776776776776777,0.7299902969598409
16,6.786786786786787,0.7610753132943049
16,6.796796796796797,0.7711756272672987
16,6.806806806806807,0.7786101621746079
16,6.816816816816817,0.7740248750118381
16,6.826826826826827,0.7640661262540325
16,6.836836836836837,0.7379795771845042
16,6.846846846846847,0.71409219560514
16,6.856856856856857,0.6710299371304084
16,6.866866866866867,0.6256171640500048
16,6.876876876876877,0.5853680747915856
16,6.886886886886887,0.5412962948843671
16,6.896896896896897,0.49888061671200745
16,6.906906906906907,0.4413339279438051
16,6.916916916916917,0.3983723944851203
16,6.926926926926927,0.34538220130624464
16,6.936936936936937,0.2948506227466954
16,6.946946946946947,0.2530813072181063
16,6.956956956956957,0.20401667505066118
16,6.966966966966967,0.18042650500721077
16,6.976976976976977,0.1338494619586024
16,6.986986986986987,0.09634324197186651
16,6.996996996996997,0.06475489279909186
16,7.007007007007007,0.05030111094341577
16,7.017017017017017,0.03208315390668324
16,7.027027027027027,0.02103700531281352
16,7.037037037037037,0.016723280474391245
16,7.047047047047047,0.004021096807210375
16,7.057057057057057,0.0022005350755051304
16,7.067067067067067,0.006677261613448971
16,7.077077077077077,-0.008986969036798272
16,7.087087087087087,-0.0010584242853339191
16,7.097097097097097,0.001665195626453236
16,7.107107107107107,0.0033341129646357673
16,7.117117117117117,-0.002424430753272681
16,7.127127127127127,-0.015254409790337448
16,7.137137137137137,-0.019136584388751092
16,7.147147147147147,-0.03093477048014436
16,7.157157157157157,-0.04938957113013131
16,7.167167167167167,-0.05715838696606075
16,7.177177177177177,-0.09498992762361942
16,7.187187187187187,-0.12863803506485252
16,7.197197197197197,-0.15732181637317894
16,7.207207207207207,-0.18986866028345462
16,7.217217217217217,-0.23967315492337393
16,7.227227227227227,-0.2821417891677891
16,7.237237237237237,-0.32703826098623356
16,7.247247247247247,-0.38193048469586394
16,7.257257257257257,-0.43721777316103766
16,7.267267267267267,-0.4875289579148863
16,7.277277277277277,-0.5353935241107365
16,7.287287287287287,-0.579320025806155
16,7.297297297297297,-0.6335153212093478
16,7.307307307307307,-0.6646507972879566
16,7.317317317317317,-0.6997691938429993
16,7.327327327327327,-0.7316178226786464
16,7.337337337337337,-0.75595770094985
16,7.347347347347347,-0.7675414753692841
16,7.357357357357357,-0.7821757760055993
16,7.367367367367367,-0.7770320325147272
16,7.377377377377377,-0.7688674991986969
16,7.387387387387387,-0.7441203668128544
16,7.397397397397397,-0.7196782056155498
16,7.407407407407407,-0.6769735545148262
16,7.4174174174174174,-0.6341555457080615
16,7.4274274274274275,-0.5722178877694856
16,7.4374374374374375,-0.5075761288534401
16,7.4474474474474475,-0.4529817046394565
16,7.4574574574574575,-0.3673211005053817
16,7.4674674674674675,-0.29232758765563993
16,7.4774774774774775,-0.1957326676718438
16,7.4874874874874875,-0.11891953784923578
16,7.4974974974974975,-0.021446772349417317
16,7.5075075075075075,0.06194792122604433
16,7.5175175175175175,0.15620156643631222
16,7.5275275275275275,0.24938992564707507
16,7.5375375375375375,0.3282130504500694
16,7.5475475475475475,0.4074802521295891
16,7.5575575575575575,0.48142836802973443
16,7.5675675675675675,0.5467715610167939
16,7.5775775775775776,0.6020212300303726
16,7.587587587587588,0.6548536803636695
16,7.597597597597598,0.7014848164462141
16,7.607607607607608,0.7257008685823664
16,7.617617617617618,0.7557776154311369
16,7.627627627627628,0.7727860426363604
16,7.637637637637638,0.7807152582377688
16,7.647647647647648,0.780960584880304
16,7.657657657657658,0.7673129850808298
16,7.667667667667668,0.7408056947265477
16,7.677677677677678,0.7234551450275282
16,7.687687687687688,0.6802948032906493
16,7.697697697697698,0.6443967165889538
16,7.707707707707708,0.6062257466781783
16,7.717717717717718,0.5588729377873456
16,7.727727727727728,0.5106312420913374
16,7.737737737737738,0.45653826411409515
16,7.747747747747748,0.40817602051980667
16,7.757757757757758,0.3519336021046058
16,7.767767767767768,0.30529336379723504
16,7.777777777777778,0.25356417052244384
16,7.787787787787788,0.22503511731985204
16,7.797797797797798,0.16945062491471938
16,7.807807807807808,0.1389632583984381
16,7.817817817817818,0.11370148403707223
16,7.827827827827828,0.08349577016753001
16,7.837837837837838,0.060161404405440946
16,7.847847847847848,0.04452616968914833
16,7.857857857857858,0.021314746191523928
16,7.867867867867868,0.015158451338491278
16,7.877877877877878,0.0018573662841054814
16,7.887887887887888,0.0009274033634526688
16,7.897897897897898,-0.003029217699366255
16,7.907907907907908,-0.0014864324982026087
16,7.917917917917918,0.010679278286329408
16,7.927927927927928,-0.008008233223066133
16,7.937937937937938,-0.01175909605040848
16,7.947947947947948,-0.015203422787129406
16,7.957957957957958,-0.002157670885319458
16,7.967967967967968,-0.016139548100757326
16,7.977977977977978,-0.027716830526446676
16,7.987987987987988,-0.04185075789870163
16,7.997997997997998,-0.0707392609854928
16,8.008008008008009,-0.09059099905236276
16,8.018018018018019,-0.10627514887180343
16,8.028028028028029,-0.15003785991909122
16,8.038038038038039,-0.18345284170252327
16,8.048048048048049,-0.2269370175595993
16,8.058058058058059,-0.273278089316212
16,8.068068068068069,-0.32589847355118445
16,8.078078078078079,-0.35923079212486236
16,8.088088088088089,-0.42759753131894734
16,8.098098098098099,-0.4654976964476796
16,8.108108108108109,-0.5242218323098042
16,8.118118118118119,-0.5720608389733055
16,8.128128128128129,-0.6086291610837673
16,8.138138138138139,-0.6534271259548511
16,8.148148148148149,-0.6935209614334094
16,8.158158158158159,-0.7156557687598025
16,8.168168168168169,-0.7508641268877059
16,8.178178178178179,-0.7719207611050791
16,8.188188188188189,-0.7755228910707516
16,8.198198198198199,-0.7685172159976722
16,8.208208208208209,-0.7818591407660631
16,8.218218218218219,-0.7501992494638517
16,8.228228228228229,-0.7299835048266867
16,8.238238238238239,-0.6878814443172799
16,8.248248248248249,-0.6569203877169076
16,8.258258258258259,-0.5941988960130281
16,8.268268268268269,-0.5275480443691548
16,8.278278278278279,-0.463823196271074
16,8.288288288288289,-0.3792316987128693
16,8.298298298298299,-0.3132146703125187
16,8.308308308308309,-0.22849629978707045
16,8.318318318318319,-0.1360395587466171
16,8.328328328328329,-0.03934307488676974
16,8.338338338338339,0.04608447802268517
16,8.348348348348349,0.13436841018567056
16,8.358358358358359,0.2178512955449893
16,8.368368368368369,0.3111233238550309
16,8.378378378378379,0.3821542654069712
16,8.388388388388389,0.46445346195695675
16,8.398398398398399,0.5356125277234632
16,8.408408408408409,0.595337019197249
16,8.418418418418419,0.642464720334462
16,8.428428428428429,0.6974365034391581
16,8.438438438438439,0.7173946399422562
16,8.448448448448449,0.7514228812027962
16,8.458458458458459,0.7755538206621799
16,8.468468468468469,0.7805097470305711
16,8.478478478478479,0.7828884399273269
16,8.488488488488489,0.7658623443678214
16,8.498498498498499,0.7518128199773173
16,8.508508508508509,0.7238582122844076
16,8.518518518518519,0.6960505699665865
16,8.528528528528529,0.6521178783383852
16,8.538538538538539,0.6045563639291295
16,8.548548548548549,0.5639592430983733
16,8.558558558558559,0.5201014718325031
16,8.568568568568569,0.4697356521857105
16,8.578578578578579,0.42137225394891775
16,8.588588588588589,0.36840721241414803
16,8.598598598598599,0.32435000838906747
16,8.608608608608609,0.2720566769634006
16,8.618618618618619,0.22568364324089146
16,8.62862862862863,0.19113530527660452
16,8.63863863863864,0.14618542992375783
16,8.64864864864865,0.11416886659004194
16,8.65865865865866,0.08670564731348042
16,8.66866866866867,0.060332139396201634
16,8.67867867867868,0.0454774652271845
16,8.68868868868869,0.023929295508617235
16,8.6986986986987,0.021072219891887088
16,8.70870870870871,0.007359961240065839
16,8.71871871871872,0.0028506522585561413
16,8.72872872872873,4.531498190649065e-05
16,8.73873873873874,-0.0019485630568921047
16,8.74874874874875,-0.006335736053469926
16,8.75875875875876,-0.007037700204347554
16,8.76876876876877,0.0020935620965582117
16,8.77877877877878,-0.0047011782316856
16,8.78878878878879,-0.010303665836204267
16,8.7987987987988,-0.013387550291194945
16,8.80880880880881,-0.030972644561467602
16,8.81881881881882,-0.03136285543352261
16,8.82882882882883,-0.050638591796649104
16,8.83883883883884,-0.07133434720473043
16,8.84884884884885,-0.1075012674784211
16,8.85885885885886,-0.13387142859359577
16,8.86886886886887,-0.17661056987943163
16,8.87887887887888,-0.21691450130272627
16,8.88888888888889,-0.2519401023431606
16,8.8988988988989,-0.2951155424333264
16,8.90890890890891,-0.3613749129276325
16,8.91891891891892,-0.39952456199676717
16,8.92892892892893,-0.44818064719851464
16,8.93893893893894,-0.506075203292645
16,8.94894894894895,-0.5572914072601876
16,8.95895895895896,-0.610802114526138
16,8.96896896896897,-0.6429658955831021
16,8.97897897897898,-0.6802196211326553
16,8.98898898898899,-0.7168853036617872
16,8.998998998999,-0.7423676485707577
16,9.00900900900901,-0.7637575660733077
16,9.01901901901902,-0.7853454414139236
16,9.02902902902903,-0.7836278914193218
16,9.03903903903904,-0.770935925297163
16,9.04904904904905,-0.7550957955347158
16,9.05905905905906,-0.735894742328954
16,9.06906906906907,-0.6923624209675162
16,9.07907907907908,-0.6642161196324821
16,9.08908908908909,-0.6118203622186272
16,9.0990990990991,-0.5497191538133231
16,9.10910910910911,-0.48057785891402943
16,9.11911911911912,-0.39597574797010143
16,9.12912912912913,-0.335822251493687
16,9.13913913913914,-0.24195384434261033
16,9.14914914914915,-0.14752896660224196
16,9.15915915915916,-0.058843652713498396
16,9.16916916916917,0.023975964837761755
16,9.17917917917918,0.11353546743190969
16,9.18918918918919,0.20685352121337328
16,9.1991991991992,0.2879636355184765
16,9.20920920920921,0.3655985593317297
16,9.21921921921922,0.44988615320840714
16,9.22922922922923,0.5221003437352855
16,9.23923923923924,0.5714558371822244
16,9.24924924924925,0.6393837824467463
16,9.25925925925926,0.6869997586134885
16,9.26926926926927,0.7160567266962784
16,9.27927927927928,0.7438242261954803
16,9.28928928928929,0.7721299898412782
16,9.2992992992993,0.7736075283900624
16,9.30930930930931,0.7763458347759492
16,9.31931931931932,0.7761049064489802
16,9.32932932932933,0.7590995388679075
16,9.33933933933934,0.7302193942221729
16,9.34934934934935,0.6978364986647244
16,9.35935935935936,0.6680016251463804
16,9.36936936936937,0.6245619357160792
16,9.37937937937938,0.5890754242047003
16,9.38938938938939,0.5356060734061843
16,9.3993993993994,0.4836703129692264
16,9.40940940940941,0.43839661319355444
16,9.41941941941942,0.38089670283618654
16,9.42942942942943,0.3378376022347145
16,9.43943943943944,0.2861131606192502
16,9.44944944944945,0.23706403949849675
16,9.45945945945946,0.19292111578193352
16,9.46946946946947,0.1598232524045108
16,9.47947947947948,0.11627042572207585
16,9.48948948948949,0.0872464179965191
16,9.4994994994995,0.0718832848213762
16,9.50950950950951,0.05168733869342304
16,9.51951951951952,0.033699197753762025
16,9.52952952952953,0.015357168657199162
16,9.53953953953954,0.01167386293095268
16,9.54954954954955,0.009358098205655373
16,9.55955955955956,-0.0019777543681102116
16,9.56956956956957,-0.0012315235718750217
16,9.57957957957958,0.0011143224134694777
16,9.58958958958959,0.004744962992708429
16,9.5995995995996,0.006859498498231111
16,9.60960960960961,-0.007642125536067391
16,9.61961961961962,-0.012951293686789366
16,9.62962962962963,-0.011499644589842793
16,9.63963963963964,-0.01728222397329892
16,9.64964964964965,-0.03847929353471988
16,9.65965965965966,-0.04990845097001566
16,9.66966966966967,-0.06589098554128477
16,9.67967967967968,-0.0979984217671461
16,9.68968968968969,-0.12697754795767147
16,9.6996996996997,-0.16752828404482445
16,9.70970970970971,-0.20801769605838738
16,9.71971971971972,-0.24960435347689813
16,9.72972972972973,-0.29094228963979674
16,9.73973973973974,-0.3444031556354446
16,9.74974974974975,-0.3900147636770778
16,9.75975975975976,-0.44495366142073317
16,9.76976976976977,-0.493717828748403
16,9.77977977977978,-0.542259417225675
16,9.78978978978979,-0.6064873481696904
16,9.7997997997998,-0.6476237357315179
16,9.80980980980981,-0.675488466982969
16,9.81981981981982,-0.713602460890885
16,9.82982982982983,-0.7354044935528428
16,9.83983983983984,-0.7624168233685189
16,9.84984984984985,-0.768457062512946
16,9.85985985985986,-0.7765270953393695
16,9.86986986986987,-0.7766942331987303
16,9.87987987987988,-0.7638076943230241
16,9.88988988988989,-0.7385693661920135
16,9.8998998998999,-0.7069062181053527
16,9.90990990990991,-0.6742597997861541
16,9.91991991991992,-0.6273224420148082
16,9.92992992992993,-0.5650674012037166
16,9.93993993993994,-0.49649660182853544
16,9.94994994994995,-0.42456655553224704
16,9.95995995995996,-0.3448135535221743
16,9.96996996996997,-0.26193103547209184
16,9.97997997997998,-0.1727849611313748
16,9.98998998998999,-0.09817909616942913
16,10.0,-0.00210552444690532
