Subject_ID,Time,PPG,HR,HRV
12,0.0,-0.0053060123786971,91,63.75629742318219
12,0.01001001001001,0.0962728979153896,91,63.75629742318219
12,0.02002002002002,0.1771012350762254,91,63.75629742318219
12,0.03003003003003,0.2657350707641076,91,63.75629742318219
12,0.04004004004004,0.3474263995178652,91,63.75629742318219
12,0.05005005005005,0.4299991849329728,91,63.75629742318219
12,0.06006006006006,0.4980878996643121,91,63.75629742318219
12,0.07007007007007,0.5663106487204891,91,63.75629742318219
12,0.08008008008008,0.6229767693200507,91,63.75629742318219
12,0.09009009009009,0.6771489610879419,91,63.75629742318219
12,0.1001001001001,0.7120213724059945,91,63.75629742318219
12,0.1101101101101101,0.7454231325755128,91,63.75629742318219
12,0.1201201201201201,0.7630144566805731,91,63.75629742318219
12,0.1301301301301301,0.7769734254479652,91,63.75629742318219
12,0.1401401401401401,0.7762569117104778,91,63.75629742318219
12,0.1501501501501501,0.7667428870246198,91,63.75629742318219
12,0.1601601601601601,0.7663887322609058,91,63.75629742318219
12,0.1701701701701701,0.7387379675570634,91,63.75629742318219
12,0.1801801801801801,0.7077599897334997,91,63.75629742318219
12,0.1901901901901901,0.6671995428327441,91,63.75629742318219
12,0.2002002002002001,0.6319612621453768,91,63.75629742318219
12,0.2102102102102102,0.5883869116986332,91,63.75629742318219
12,0.2202202202202202,0.5379387694283717,91,63.75629742318219
12,0.2302302302302302,0.4882241142740006,91,63.75629742318219
12,0.2402402402402402,0.4483014268194994,91,63.75629742318219
12,0.2502502502502503,0.3953947177605349,91,63.75629742318219
12,0.2602602602602603,0.3441858851035023,91,63.75629742318219
12,0.2702702702702703,0.2955235726757078,91,63.75629742318219
12,0.2802802802802803,0.2476988954220504,91,63.75629742318219
12,0.2902902902902903,0.202405075097115,91,63.75629742318219
12,0.3003003003003003,0.1689393020615011,91,63.75629742318219
12,0.3103103103103103,0.1272145329878049,91,63.75629742318219
12,0.3203203203203203,0.0993643204118531,91,63.75629742318219
12,0.3303303303303303,0.0738580622626217,91,63.75629742318219
12,0.3403403403403403,0.0501044797472911,91,63.75629742318219
12,0.3503503503503503,0.0277610029396234,91,63.75629742318219
12,0.3603603603603603,0.0135851261082206,91,63.75629742318219
12,0.3703703703703703,0.013936483406879,91,63.75629742318219
12,0.3803803803803803,0.0016616468139485,91,63.75629742318219
12,0.3903903903903903,0.0061642377991574,91,63.75629742318219
12,0.4004004004004003,0.005516080818317,91,63.75629742318219
12,0.4104104104104104,0.0024389328950299,91,63.75629742318219
12,0.4204204204204204,-0.0101584735339454,91,63.75629742318219
12,0.4304304304304304,-0.0077967252237242,91,63.75629742318219
12,0.4404404404404404,-0.0078706598677595,91,63.75629742318219
12,0.4504504504504504,-0.0008708732337436,91,63.75629742318219
12,0.4604604604604604,-0.0121974152985401,91,63.75629742318219
12,0.4704704704704704,-0.0209959592847319,91,63.75629742318219
12,0.4804804804804805,-0.0299746585107509,91,63.75629742318219
12,0.4904904904904905,-0.0528160951364785,91,63.75629742318219
12,0.5005005005005005,-0.0703345840997662,91,63.75629742318219
12,0.5105105105105106,-0.0865273890603256,91,63.75629742318219
12,0.5205205205205206,-0.1201067391868576,91,63.75629742318219
12,0.5305305305305306,-0.1648835731512006,91,63.75629742318219
12,0.5405405405405406,-0.1971852665200755,91,63.75629742318219
12,0.5505505505505506,-0.2294779601421444,91,63.75629742318219
12,0.5605605605605606,-0.2845151009070607,91,63.75629742318219
12,0.5705705705705706,-0.33554914789846,91,63.75629742318219
12,0.5805805805805806,-0.3818494787316367,91,63.75629742318219
12,0.5905905905905906,-0.4253375301374751,91,63.75629742318219
12,0.6006006006006006,-0.4767247665375264,91,63.75629742318219
12,0.6106106106106106,-0.5237954736755839,91,63.75629742318219
12,0.6206206206206206,-0.5754060345548909,91,63.75629742318219
12,0.6306306306306306,-0.6294303867219297,91,63.75629742318219
12,0.6406406406406406,-0.662242757242645,91,63.75629742318219
12,0.6506506506506506,-0.7077223187529148,91,63.75629742318219
12,0.6606606606606606,-0.7272916147594903,91,63.75629742318219
12,0.6706706706706707,-0.7509293777523567,91,63.75629742318219
12,0.6806806806806807,-0.7753956512727435,91,63.75629742318219
12,0.6906906906906907,-0.7784363409507113,91,63.75629742318219
12,0.7007007007007007,-0.7740999363889529,91,63.75629742318219
12,0.7107107107107107,-0.771463273231298,91,63.75629742318219
12,0.7207207207207207,-0.7455511284724384,91,63.75629742318219
12,0.7307307307307307,-0.7138900333846736,91,63.75629742318219
12,0.7407407407407407,-0.6810053626318401,91,63.75629742318219
12,0.7507507507507507,-0.6316940747963541,91,63.75629742318219
12,0.7607607607607607,-0.5788224241818526,91,63.75629742318219
12,0.7707707707707707,-0.5271834091142795,91,63.75629742318219
12,0.7807807807807807,-0.4434121013554534,91,63.75629742318219
12,0.7907907907907907,-0.3746028277720742,91,63.75629742318219
12,0.8008008008008007,-0.292651604139353,91,63.75629742318219
12,0.8108108108108109,-0.2043240445017902,91,63.75629742318219
12,0.8208208208208209,-0.1165379339663862,91,63.75629742318219
12,0.8308308308308309,-0.0286569887529351,91,63.75629742318219
12,0.8408408408408409,0.0709833321990889,91,63.75629742318219
12,0.8508508508508509,0.1593557047078216,91,63.75629742318219
12,0.8608608608608609,0.24459487037174,91,63.75629742318219
12,0.8708708708708709,0.32435498208046,91,63.75629742318219
12,0.8808808808808809,0.4082868550519211,91,63.75629742318219
12,0.8908908908908909,0.4795998983610547,91,63.75629742318219
12,0.9009009009009008,0.5453891482945138,91,63.75629742318219
12,0.9109109109109108,0.608091321151471,91,63.75629742318219
12,0.9209209209209208,0.6605200535930134,91,63.75629742318219
12,0.9309309309309308,0.7065058804248908,91,63.75629742318219
12,0.9409409409409408,0.7408843344206671,91,63.75629742318219
12,0.950950950950951,0.7577250308097,91,63.75629742318219
12,0.960960960960961,0.770671602633932,91,63.75629742318219
12,0.970970970970971,0.7770141693605509,91,63.75629742318219
12,0.980980980980981,0.7766152544642727,91,63.75629742318219
12,0.990990990990991,0.7625319130199469,91,63.75629742318219
12,1.001001001001001,0.748260928478069,91,63.75629742318219
12,1.011011011011011,0.7238805122806027,91,63.75629742318219
12,1.021021021021021,0.6833702787955552,91,63.75629742318219
12,1.031031031031031,0.6467973874234879,91,63.75629742318219
12,1.0410410410410411,0.6098731517953827,91,63.75629742318219
12,1.0510510510510511,0.567187893544629,91,63.75629742318219
12,1.0610610610610611,0.5108585369142928,91,63.75629742318219
12,1.0710710710710711,0.4609485260499151,91,63.75629742318219
12,1.0810810810810811,0.4029838201028672,91,63.75629742318219
12,1.0910910910910911,0.3447259911144124,91,63.75629742318219
12,1.1011011011011012,0.3014967975193794,91,63.75629742318219
12,1.1111111111111112,0.2513255202396245,91,63.75629742318219
12,1.1211211211211212,0.2074865826327173,91,63.75629742318219
12,1.1311311311311312,0.1730928947826476,91,63.75629742318219
12,1.1411411411411412,0.1445141286111921,91,63.75629742318219
12,1.1511511511511512,0.1070785407586442,91,63.75629742318219
12,1.1611611611611612,0.0784560446107776,91,63.75629742318219
12,1.1711711711711712,0.0597268312922435,91,63.75629742318219
12,1.1811811811811812,0.0368864237064168,91,63.75629742318219
12,1.1911911911911912,0.0202415639288458,91,63.75629742318219
12,1.2012012012012012,0.0220354023302287,91,63.75629742318219
12,1.2112112112112112,0.0016232103107555,91,63.75629742318219
12,1.2212212212212212,0.0100997931848634,91,63.75629742318219
12,1.2312312312312312,-0.0021609572925193,91,63.75629742318219
12,1.2412412412412412,-0.0010786308467158,91,63.75629742318219
12,1.2512512512512513,-0.0083469108762173,91,63.75629742318219
12,1.2612612612612613,0.0075096916554031,91,63.75629742318219
12,1.2712712712712713,-0.0037030548540495,91,63.75629742318219
12,1.2812812812812813,0.0031677881616021,91,63.75629742318219
12,1.2912912912912913,-0.008643759261524,91,63.75629742318219
12,1.3013013013013013,-0.0130115301283233,91,63.75629742318219
12,1.3113113113113113,-0.0345131328976356,91,63.75629742318219
12,1.3213213213213213,-0.0446750887802131,91,63.75629742318219
12,1.3313313313313313,-0.0648921445076313,91,63.75629742318219
12,1.3413413413413413,-0.0902191753381218,91,63.75629742318219
12,1.351351351351351,-0.1153033192576443,91,63.75629742318219
12,1.361361361361361,-0.154013609735271,91,63.75629742318219
12,1.371371371371371,-0.1835659408622174,91,63.75629742318219
12,1.3813813813813811,-0.2199309990348198,91,63.75629742318219
12,1.3913913913913911,-0.2821875260879667,91,63.75629742318219
12,1.4014014014014011,-0.3214391464707705,91,63.75629742318219
12,1.4114114114114114,-0.3708131314879215,91,63.75629742318219
12,1.4214214214214214,-0.4155526895499767,91,63.75629742318219
12,1.4314314314314314,-0.4730645534618326,91,63.75629742318219
12,1.4414414414414414,-0.515226732045221,91,63.75629742318219
12,1.4514514514514514,-0.567757711056134,91,63.75629742318219
12,1.4614614614614614,-0.6183283846846563,91,63.75629742318219
12,1.4714714714714714,-0.6645985015202234,91,63.75629742318219
12,1.4814814814814814,-0.6964621369080195,91,63.75629742318219
12,1.4914914914914914,-0.7127399400727469,91,63.75629742318219
12,1.5015015015015014,-0.752117580242387,91,63.75629742318219
12,1.5115115115115114,-0.7714109505500114,91,63.75629742318219
12,1.5215215215215214,-0.7746392955882563,91,63.75629742318219
12,1.5315315315315314,-0.7812638105507799,91,63.75629742318219
12,1.5415415415415414,-0.7764780885934118,91,63.75629742318219
12,1.5515515515515514,-0.7446922883046676,91,63.75629742318219
12,1.5615615615615617,-0.7312267093691396,91,63.75629742318219
12,1.5715715715715717,-0.6882146880680331,91,63.75629742318219
12,1.5815815815815817,-0.6478082702553186,91,63.75629742318219
12,1.5915915915915917,-0.5926431002344642,91,63.75629742318219
12,1.6016016016016017,-0.5398781710153064,91,63.75629742318219
12,1.6116116116116117,-0.4698570438759913,91,63.75629742318219
12,1.6216216216216215,-0.3835917569318504,91,63.75629742318219
12,1.6316316316316315,-0.2962275492424067,91,63.75629742318219
12,1.6416416416416415,-0.2149211013644182,91,63.75629742318219
12,1.6516516516516515,-0.1471241029670934,91,63.75629742318219
12,1.6616616616616615,-0.0391170880063324,91,63.75629742318219
12,1.6716716716716715,0.0418315313776054,91,63.75629742318219
12,1.6816816816816818,0.1345555453161614,91,63.75629742318219
12,1.6916916916916918,0.2298252263677198,91,63.75629742318219
12,1.7017017017017018,0.3075775504043754,91,63.75629742318219
12,1.7117117117117118,0.389760771788568,91,63.75629742318219
12,1.7217217217217218,0.4567159484428684,91,63.75629742318219
12,1.7317317317317318,0.5323707766413835,91,63.75629742318219
12,1.7417417417417418,0.5913385583872866,91,63.75629742318219
12,1.7517517517517518,0.6454950788899171,91,63.75629742318219
12,1.7617617617617618,0.6977024533474723,91,63.75629742318219
12,1.7717717717717718,0.7211769685977276,91,63.75629742318219
12,1.7817817817817818,0.7465608271174939,91,63.75629742318219
12,1.7917917917917918,0.769816324351072,91,63.75629742318219
12,1.8018018018018016,0.7816655467345069,91,63.75629742318219
12,1.811811811811812,0.7798544097589857,91,63.75629742318219
12,1.8218218218218216,0.7690799630238601,91,63.75629742318219
12,1.831831831831832,0.7454311587653729,91,63.75629742318219
12,1.8418418418418416,0.7326879589081818,91,63.75629742318219
12,1.851851851851852,0.6860283356752532,91,63.75629742318219
12,1.8618618618618616,0.6557095900618727,91,63.75629742318219
12,1.871871871871872,0.6049629325115593,91,63.75629742318219
12,1.8818818818818817,0.5713034850351465,91,63.75629742318219
12,1.891891891891892,0.5230824156246607,91,63.75629742318219
12,1.901901901901902,0.4705758830440208,91,63.75629742318219
12,1.911911911911912,0.4173367572357379,91,63.75629742318219
12,1.921921921921922,0.3633720302074744,91,63.75629742318219
12,1.931931931931932,0.3258606302103389,91,63.75629742318219
12,1.941941941941942,0.2703152107996628,91,63.75629742318219
12,1.951951951951952,0.2333220502359617,91,63.75629742318219
12,1.961961961961962,0.188067149928513,91,63.75629742318219
12,1.971971971971972,0.1411334321856798,91,63.75629742318219
12,1.981981981981982,0.1125139694749579,91,63.75629742318219
12,1.991991991991992,0.0883658759475065,91,63.75629742318219
12,2.002002002002002,0.0629462624388216,91,63.75629742318219
12,2.012012012012012,0.0428463352011791,91,63.75629742318219
12,2.022022022022022,0.0309292693426058,91,63.75629742318219
12,2.032032032032032,0.0180199266428325,91,63.75629742318219
12,2.042042042042042,0.0169890050652746,91,63.75629742318219
12,2.052052052052052,-0.0009830212050397,91,63.75629742318219
12,2.062062062062062,0.0071832521347338,91,63.75629742318219
12,2.072072072072072,0.0077916218449258,91,63.75629742318219
12,2.0820820820820822,0.010306103385567,91,63.75629742318219
12,2.092092092092092,0.0004444672167179,91,63.75629742318219
12,2.1021021021021022,-0.0026491200411744,91,63.75629742318219
12,2.112112112112112,-0.0054805044865539,91,63.75629742318219
12,2.1221221221221223,0.0018600893323527,91,63.75629742318219
12,2.1321321321321323,-0.0193273269178424,91,63.75629742318219
12,2.1421421421421423,-0.0236363471759145,91,63.75629742318219
12,2.1521521521521523,-0.0431917789933948,91,63.75629742318219
12,2.1621621621621623,-0.0511517471402278,91,63.75629742318219
12,2.1721721721721723,-0.0734324690105682,91,63.75629742318219
12,2.1821821821821823,-0.1113551491159142,91,63.75629742318219
12,2.1921921921921923,-0.1429514553594723,91,63.75629742318219
12,2.2022022022022023,-0.1792158874350263,91,63.75629742318219
12,2.2122122122122123,-0.2146750635421001,91,63.75629742318219
12,2.2222222222222223,-0.2566116311168602,91,63.75629742318219
12,2.2322322322322323,-0.309620182148821,91,63.75629742318219
12,2.2422422422422423,-0.3605966604486543,91,63.75629742318219
12,2.2522522522522523,-0.4035847720551532,91,63.75629742318219
12,2.2622622622622623,-0.4511794278401098,91,63.75629742318219
12,2.2722722722722724,-0.5060831043014726,91,63.75629742318219
12,2.2822822822822824,-0.5612508122769094,91,63.75629742318219
12,2.2922922922922924,-0.5998219445340445,91,63.75629742318219
12,2.3023023023023024,-0.649722028084614,91,63.75629742318219
12,2.3123123123123124,-0.6888308595674286,91,63.75629742318219
12,2.3223223223223224,-0.7179117220996544,91,63.75629742318219
12,2.3323323323323324,-0.736807362580307,91,63.75629742318219
12,2.3423423423423424,-0.7652661533515138,91,63.75629742318219
12,2.3523523523523524,-0.7771385248561604,91,63.75629742318219
12,2.3623623623623624,-0.7894178720265084,91,63.75629742318219
12,2.3723723723723724,-0.7817821230166108,91,63.75629742318219
12,2.3823823823823824,-0.759741748929265,91,63.75629742318219
12,2.3923923923923924,-0.7250865925713906,91,63.75629742318219
12,2.4024024024024024,-0.6995815435527796,91,63.75629742318219
12,2.4124124124124124,-0.6701514226254283,91,63.75629742318219
12,2.4224224224224224,-0.6092358951809802,91,63.75629742318219
12,2.4324324324324325,-0.5444957151949221,91,63.75629742318219
12,2.4424424424424425,-0.475525010360088,91,63.75629742318219
12,2.4524524524524525,-0.4114315783798068,91,63.75629742318219
12,2.4624624624624625,-0.3253169216250328,91,63.75629742318219
12,2.4724724724724725,-0.2460266163629928,91,63.75629742318219
12,2.4824824824824825,-0.1672579315832684,91,63.75629742318219
12,2.4924924924924925,-0.0710576302795832,91,63.75629742318219
12,2.5025025025025025,0.0196021107640168,91,63.75629742318219
12,2.5125125125125125,0.1035802168051551,91,63.75629742318219
12,2.5225225225225225,0.202411974263746,91,63.75629742318219
12,2.5325325325325325,0.286743111460323,91,63.75629742318219
12,2.5425425425425425,0.3692746907045316,91,63.75629742318219
12,2.5525525525525525,0.4473171837634957,91,63.75629742318219
12,2.5625625625625625,0.5128839182183792,91,63.75629742318219
12,2.5725725725725725,0.5765270824538234,91,63.75629742318219
12,2.5825825825825826,0.6374135102620017,91,63.75629742318219
12,2.592592592592593,0.6728674540124769,91,63.75629742318219
12,2.6026026026026026,0.7228983902146424,91,63.75629742318219
12,2.612612612612613,0.7503649744306414,91,63.75629742318219
12,2.6226226226226226,0.7671594723049482,91,63.75629742318219
12,2.6326326326326326,0.7769661280767347,91,63.75629742318219
12,2.6426426426426426,0.7758204631653604,91,63.75629742318219
12,2.6526526526526526,0.7664847507545618,91,63.75629742318219
12,2.6626626626626626,0.7553779883486406,91,63.75629742318219
12,2.6726726726726726,0.734122473638882,91,63.75629742318219
12,2.6826826826826826,0.7004662108303964,91,63.75629742318219
12,2.6926926926926926,0.6676094812325631,91,63.75629742318219
12,2.702702702702702,0.6199928314784486,91,63.75629742318219
12,2.7127127127127126,0.5858271612547076,91,63.75629742318219
12,2.722722722722722,0.5332882255883551,91,63.75629742318219
12,2.7327327327327327,0.4869676696999852,91,63.75629742318219
12,2.7427427427427427,0.4308876484162554,91,63.75629742318219
12,2.7527527527527527,0.3732150901816911,91,63.75629742318219
12,2.7627627627627627,0.3272583532576646,91,63.75629742318219
12,2.7727727727727727,0.2855776978766868,91,63.75629742318219
12,2.7827827827827827,0.2427953153335781,91,63.75629742318219
12,2.7927927927927927,0.1923860988870709,91,63.75629742318219
12,2.8028028028028027,0.1620038863300855,91,63.75629742318219
12,2.8128128128128127,0.117782770412354,91,63.75629742318219
12,2.8228228228228227,0.100081874123327,91,63.75629742318219
12,2.8328328328328327,0.0702794026357257,91,63.75629742318219
12,2.8428428428428427,0.0485006732028915,91,63.75629742318219
12,2.8528528528528527,0.0364080204298928,91,63.75629742318219
12,2.8628628628628627,0.0188525174658461,91,63.75629742318219
12,2.8728728728728727,0.0152767145567699,91,63.75629742318219
12,2.8828828828828827,0.0046359669840702,91,63.75629742318219
12,2.8928928928928928,0.0028186414789926,91,63.75629742318219
12,2.9029029029029028,0.0100779551496335,91,63.75629742318219
12,2.9129129129129128,-0.0042527693685846,91,63.75629742318219
12,2.9229229229229228,0.0019402064298579,91,63.75629742318219
12,2.932932932932933,0.0037904172707561,91,63.75629742318219
12,2.942942942942943,-0.0074411451801126,91,63.75629742318219
12,2.952952952952953,-0.0108296978740995,91,63.75629742318219
12,2.962962962962963,0.0019569798235862,91,63.75629742318219
12,2.972972972972973,-0.0210075534151243,91,63.75629742318219
12,2.982982982982983,-0.0328570396000377,91,63.75629742318219
12,2.992992992992993,-0.0446975226556657,91,63.75629742318219
12,3.003003003003003,-0.0717318329863565,91,63.75629742318219
12,3.013013013013013,-0.0960462370151739,91,63.75629742318219
12,3.023023023023023,-0.1229274272831038,91,63.75629742318219
12,3.033033033033033,-0.1611484012214223,91,63.75629742318219
12,3.043043043043043,-0.2079926321159454,91,63.75629742318219
12,3.053053053053053,-0.2520409891393517,91,63.75629742318219
12,3.063063063063063,-0.2929364880102442,91,63.75629742318219
12,3.073073073073073,-0.3323240547524034,91,63.75629742318219
12,3.083083083083083,-0.3882212704921354,91,63.75629742318219
12,3.093093093093093,-0.4449713295794625,91,63.75629742318219
12,3.103103103103103,-0.4928620358369232,91,63.75629742318219
12,3.113113113113113,-0.5455168432989597,91,63.75629742318219
12,3.123123123123123,-0.5894934808311378,91,63.75629742318219
12,3.133133133133133,-0.6351302790813111,91,63.75629742318219
12,3.143143143143143,-0.6651320289924747,91,63.75629742318219
12,3.153153153153153,-0.7024303715289615,91,63.75629742318219
12,3.163163163163163,-0.7394166039484156,91,63.75629742318219
12,3.173173173173173,-0.7534274075271123,91,63.75629742318219
12,3.183183183183183,-0.7728539342120315,91,63.75629742318219
12,3.193193193193193,-0.7827516323295113,91,63.75629742318219
12,3.203203203203203,-0.7756599639684191,91,63.75629742318219
12,3.2132132132132134,-0.7604556040311923,91,63.75629742318219
12,3.2232232232232234,-0.7416474553884094,91,63.75629742318219
12,3.2332332332332334,-0.7165540207021982,91,63.75629742318219
12,3.2432432432432434,-0.6639627751076113,91,63.75629742318219
12,3.253253253253253,-0.6241476714798165,91,63.75629742318219
12,3.2632632632632634,-0.5634024783685035,91,63.75629742318219
12,3.273273273273273,-0.499098134613265,91,63.75629742318219
12,3.2832832832832834,-0.4215488017915441,91,63.75629742318219
12,3.293293293293293,-0.3519736414719005,91,63.75629742318219
12,3.3033033033033035,-0.2688270903422933,91,63.75629742318219
12,3.313313313313313,-0.1718737802341109,91,63.75629742318219
12,3.3233233233233235,-0.0892954403081019,91,63.75629742318219
12,3.333333333333333,-0.0053021272310494,91,63.75629742318219
12,3.3433433433433435,0.0883875441143919,91,63.75629742318219
12,3.353353353353353,0.1816765827289168,91,63.75629742318219
12,3.3633633633633635,0.2646353451304343,91,63.75629742318219
12,3.373373373373373,0.3473289137965464,91,63.75629742318219
12,3.3833833833833835,0.4305031036078272,91,63.75629742318219
12,3.393393393393393,0.5027187015009904,91,63.75629742318219
12,3.4034034034034035,0.566106886399054,91,63.75629742318219
12,3.413413413413413,0.6176772438212786,91,63.75629742318219
12,3.4234234234234235,0.6638013727037892,91,63.75629742318219
12,3.433433433433433,0.7045275921934169,91,63.75629742318219
12,3.443443443443444,0.7460989680799981,91,63.75629742318219
12,3.4534534534534536,0.7633168210270923,91,63.75629742318219
12,3.463463463463464,0.7739303304033713,91,63.75629742318219
12,3.4734734734734736,0.7794003405990235,91,63.75629742318219
12,3.483483483483484,0.7763084042109992,91,63.75629742318219
12,3.4934934934934936,0.7564777096896317,91,63.75629742318219
12,3.503503503503504,0.7422386325321652,91,63.75629742318219
12,3.5135135135135136,0.7034844503443339,91,63.75629742318219
12,3.523523523523524,0.6679784859885795,91,63.75629742318219
12,3.5335335335335336,0.6341632784616935,91,63.75629742318219
12,3.543543543543544,0.5944866119115654,91,63.75629742318219
12,3.5535535535535536,0.5488926611793815,91,63.75629742318219
12,3.563563563563564,0.5007269883404846,91,63.75629742318219
12,3.5735735735735736,0.4407264762273764,91,63.75629742318219
12,3.583583583583584,0.3915751442251059,91,63.75629742318219
12,3.5935935935935936,0.3480735033321036,91,63.75629742318219
12,3.603603603603604,0.295213636058224,91,63.75629742318219
12,3.6136136136136137,0.2536926126627107,91,63.75629742318219
12,3.623623623623624,0.200760316589865,91,63.75629742318219
12,3.6336336336336337,0.1669189362030259,91,63.75629742318219
12,3.643643643643644,0.1439070839427377,91,63.75629742318219
12,3.6536536536536537,0.1031961890701026,91,63.75629742318219
12,3.663663663663664,0.0758056641474175,91,63.75629742318219
12,3.6736736736736737,0.0489424037057991,91,63.75629742318219
12,3.683683683683684,0.0368287071249493,91,63.75629742318219
12,3.6936936936936937,0.025072143409589,91,63.75629742318219
12,3.703703703703704,0.0150915778124293,91,63.75629742318219
12,3.7137137137137137,0.0117187646730166,91,63.75629742318219
12,3.723723723723724,0.0003223468351446,91,63.75629742318219
12,3.7337337337337337,-0.0040627338610329,91,63.75629742318219
12,3.743743743743744,0.0047485619331676,91,63.75629742318219
12,3.7537537537537538,-0.0005015783218569,91,63.75629742318219
12,3.763763763763764,0.0002849928915903,91,63.75629742318219
12,3.7737737737737738,-0.0052818239572591,91,63.75629742318219
12,3.783783783783784,-0.0171161808322093,91,63.75629742318219
12,3.793793793793794,-0.0110262261446551,91,63.75629742318219
12,3.803803803803804,-0.0137691106624197,91,63.75629742318219
12,3.813813813813814,-0.033543790229338,91,63.75629742318219
12,3.823823823823824,-0.0365304375117566,91,63.75629742318219
12,3.833833833833834,-0.0595259725946016,91,63.75629742318219
12,3.843843843843844,-0.0996995624672556,91,63.75629742318219
12,3.853853853853854,-0.1126901980563817,91,63.75629742318219
12,3.863863863863864,-0.1638772301053543,91,63.75629742318219
12,3.873873873873874,-0.1934859502721561,91,63.75629742318219
12,3.883883883883884,-0.231049914813644,91,63.75629742318219
12,3.893893893893894,-0.2755349248308163,91,63.75629742318219
12,3.903903903903904,-0.3268221469889847,91,63.75629742318219
12,3.913913913913914,-0.3897462159806282,91,63.75629742318219
12,3.923923923923924,-0.4341835740183601,91,63.75629742318219
12,3.933933933933934,-0.4816974821121043,91,63.75629742318219
12,3.943943943943944,-0.5254756129932885,91,63.75629742318219
12,3.953953953953954,-0.5845117781223101,91,63.75629742318219
12,3.963963963963964,-0.6299549721646162,91,63.75629742318219
12,3.973973973973974,-0.665829610625966,91,63.75629742318219
12,3.983983983983984,-0.6955756143469483,91,63.75629742318219
12,3.993993993993994,-0.7374567936671024,91,63.75629742318219
12,4.004004004004004,-0.749602109459467,91,63.75629742318219
12,4.014014014014014,-0.7653811024624553,91,63.75629742318219
12,4.024024024024024,-0.7742505544183277,91,63.75629742318219
12,4.034034034034034,-0.7773530831479436,91,63.75629742318219
12,4.044044044044044,-0.7703947971707863,91,63.75629742318219
12,4.054054054054054,-0.7506247495980231,91,63.75629742318219
12,4.064064064064064,-0.7151144787356737,91,63.75629742318219
12,4.074074074074074,-0.684789872305938,91,63.75629742318219
12,4.084084084084084,-0.6399642597739503,91,63.75629742318219
12,4.094094094094094,-0.5724233899938663,91,63.75629742318219
12,4.104104104104104,-0.5144178461850426,91,63.75629742318219
12,4.114114114114114,-0.4452689897139217,91,63.75629742318219
12,4.124124124124124,-0.3651679090972838,91,63.75629742318219
12,4.134134134134134,-0.2835732591198678,91,63.75629742318219
12,4.144144144144144,-0.2028602686266591,91,63.75629742318219
12,4.1541541541541545,-0.105407689427233,91,63.75629742318219
12,4.1641641641641645,-0.0317737055949174,91,63.75629742318219
12,4.174174174174175,0.060583391219211,91,63.75629742318219
12,4.1841841841841845,0.1516493122912129,91,63.75629742318219
12,4.1941941941941945,0.2439463154644519,91,63.75629742318219
12,4.2042042042042045,0.3228808752295818,91,63.75629742318219
12,4.214214214214215,0.4137821973150775,91,63.75629742318219
12,4.2242242242242245,0.4847723399519665,91,63.75629742318219
12,4.2342342342342345,0.5405875595543869,91,63.75629742318219
12,4.2442442442442445,0.6035325234716837,91,63.75629742318219
12,4.254254254254255,0.653028201047038,91,63.75629742318219
12,4.2642642642642645,0.7000988158715781,91,63.75629742318219
12,4.2742742742742745,0.7330979126471266,91,63.75629742318219
12,4.2842842842842845,0.7635762133735803,91,63.75629742318219
12,4.294294294294295,0.7712408781254603,91,63.75629742318219
12,4.3043043043043046,0.7774437447835685,91,63.75629742318219
12,4.314314314314315,0.7720501215562537,91,63.75629742318219
12,4.324324324324325,0.7664453414031579,91,63.75629742318219
12,4.334334334334335,0.748485180093053,91,63.75629742318219
12,4.344344344344345,0.7199477677859508,91,63.75629742318219
12,4.354354354354355,0.6799265126819835,91,63.75629742318219
12,4.364364364364365,0.639335162868671,91,63.75629742318219
12,4.374374374374375,0.6082961118978163,91,63.75629742318219
12,4.384384384384385,0.5599172783107094,91,63.75629742318219
12,4.394394394394395,0.4988136470106108,91,63.75629742318219
12,4.404404404404405,0.4589469903572988,91,63.75629742318219
12,4.414414414414415,0.4057084475036037,91,63.75629742318219
12,4.424424424424425,0.3610875944527862,91,63.75629742318219
12,4.434434434434435,0.3059839889990179,91,63.75629742318219
12,4.444444444444445,0.2559739338723186,91,63.75629742318219
12,4.454454454454455,0.2086666522568893,91,63.75629742318219
12,4.464464464464465,0.1874579674909091,91,63.75629742318219
12,4.474474474474475,0.1468138111153974,91,63.75629742318219
12,4.484484484484485,0.1110652796787161,91,63.75629742318219
12,4.494494494494495,0.0756405390544211,91,63.75629742318219
12,4.504504504504505,0.0606598003705359,91,63.75629742318219
12,4.514514514514515,0.0365824788351364,91,63.75629742318219
12,4.524524524524525,0.0241134240123238,91,63.75629742318219
12,4.534534534534535,0.013263966107166,91,63.75629742318219
12,4.544544544544545,0.002736117899383,91,63.75629742318219
12,4.554554554554555,0.0080477890167494,91,63.75629742318219
12,4.564564564564565,-0.0014267148626385,91,63.75629742318219
12,4.574574574574575,0.0048090950156979,91,63.75629742318219
12,4.584584584584585,0.0068050086886319,91,63.75629742318219
12,4.594594594594595,0.0016950523092746,91,63.75629742318219
12,4.604604604604605,-0.0040921011645675,91,63.75629742318219
12,4.614614614614615,-0.0047420919854808,91,63.75629742318219
12,4.624624624624625,-0.0071370023591654,91,63.75629742318219
12,4.634634634634635,-0.0078724396465705,91,63.75629742318219
12,4.644644644644645,-0.0321466610230591,91,63.75629742318219
12,4.654654654654655,-0.0465414357937555,91,63.75629742318219
12,4.664664664664665,-0.0616853232580338,91,63.75629742318219
12,4.674674674674675,-0.0838463200488638,91,63.75629742318219
12,4.684684684684685,-0.1173193818307117,91,63.75629742318219
12,4.694694694694695,-0.1417267642241203,91,63.75629742318219
12,4.704704704704705,-0.1840836481636626,91,63.75629742318219
12,4.714714714714715,-0.2189939765349086,91,63.75629742318219
12,4.724724724724725,-0.2721004986063049,91,63.75629742318219
12,4.734734734734735,-0.3248860691499391,91,63.75629742318219
12,4.744744744744745,-0.3705922727450759,91,63.75629742318219
12,4.754754754754755,-0.4154243125802981,91,63.75629742318219
12,4.764764764764765,-0.4700000158876432,91,63.75629742318219
12,4.774774774774775,-0.5109990431306879,91,63.75629742318219
12,4.784784784784785,-0.5724339095322952,91,63.75629742318219
12,4.794794794794795,-0.6160519242742997,91,63.75629742318219
12,4.804804804804805,-0.664054521507877,91,63.75629742318219
12,4.814814814814815,-0.6963063398703488,91,63.75629742318219
12,4.824824824824825,-0.7246733011093313,91,63.75629742318219
12,4.834834834834835,-0.7458016035922898,91,63.75629742318219
12,4.844844844844845,-0.7646935998665905,91,63.75629742318219
12,4.854854854854855,-0.7790836876683627,91,63.75629742318219
12,4.864864864864865,-0.7834082021413044,91,63.75629742318219
12,4.874874874874875,-0.7707560715967692,91,63.75629742318219
12,4.884884884884885,-0.7482046447859744,91,63.75629742318219
12,4.894894894894895,-0.7213189610589439,91,63.75629742318219
12,4.904904904904905,-0.6873799217069485,91,63.75629742318219
12,4.914914914914915,-0.6438013257670785,91,63.75629742318219
12,4.924924924924925,-0.5897458989022573,91,63.75629742318219
12,4.934934934934935,-0.5352086477505346,91,63.75629742318219
12,4.944944944944945,-0.459237163225587,91,63.75629742318219
12,4.954954954954955,-0.4046831568865642,91,63.75629742318219
12,4.964964964964965,-0.3115660915807472,91,63.75629742318219
12,4.974974974974975,-0.2272451373597831,91,63.75629742318219
12,4.984984984984985,-0.1429617407325046,91,63.75629742318219
12,4.994994994994995,-0.0486948837602078,91,63.75629742318219
12,5.005005005005005,0.0302930890481292,91,63.75629742318219
12,5.015015015015015,0.1388649168986241,91,63.75629742318219
12,5.025025025025025,0.2230291373924181,91,63.75629742318219
12,5.035035035035035,0.3072087238347363,91,63.75629742318219
12,5.045045045045045,0.3890000333135968,91,63.75629742318219
12,5.055055055055055,0.4651097167913844,91,63.75629742318219
12,5.065065065065065,0.5346350343598423,91,63.75629742318219
12,5.075075075075075,0.5959757178554934,91,63.75629742318219
12,5.085085085085085,0.6477476429744289,91,63.75629742318219
12,5.095095095095095,0.6971811077182246,91,63.75629742318219
12,5.105105105105105,0.7355766973356486,91,63.75629742318219
12,5.115115115115115,0.7635069829584601,91,63.75629742318219
12,5.125125125125125,0.7736393375057932,91,63.75629742318219
12,5.135135135135135,0.776719614341199,91,63.75629742318219
12,5.145145145145145,0.7758324910458042,91,63.75629742318219
12,5.155155155155155,0.7612691486270701,91,63.75629742318219
12,5.165165165165165,0.7491548004120641,91,63.75629742318219
12,5.175175175175175,0.7297929559125166,91,63.75629742318219
12,5.185185185185185,0.6924388361207796,91,63.75629742318219
12,5.195195195195195,0.6588949927606168,91,63.75629742318219
12,5.205205205205205,0.6117274552907528,91,63.75629742318219
12,5.215215215215215,0.56853929955568,91,63.75629742318219
12,5.225225225225225,0.5230480662782502,91,63.75629742318219
12,5.235235235235235,0.4652128601344549,91,63.75629742318219
12,5.245245245245245,0.424294701935219,91,63.75629742318219
12,5.255255255255255,0.3698455832833847,91,63.75629742318219
12,5.265265265265265,0.3174698893410903,91,63.75629742318219
12,5.275275275275275,0.2658696489639872,91,63.75629742318219
12,5.285285285285285,0.2241029496944456,91,63.75629742318219
12,5.295295295295295,0.1803221450924263,91,63.75629742318219
12,5.305305305305305,0.1469475039924423,91,63.75629742318219
12,5.315315315315315,0.1188670083113817,91,63.75629742318219
12,5.325325325325325,0.0897487547815285,91,63.75629742318219
12,5.335335335335335,0.0673691101077552,91,63.75629742318219
12,5.345345345345345,0.0429308287455292,91,63.75629742318219
12,5.355355355355355,0.0337297384460637,91,63.75629742318219
12,5.365365365365365,0.022473703730545,91,63.75629742318219
12,5.375375375375375,0.0099555225221649,91,63.75629742318219
12,5.385385385385385,0.010439371880307,91,63.75629742318219
12,5.395395395395395,0.0057556239232996,91,63.75629742318219
12,5.405405405405405,0.0054456482875099,91,63.75629742318219
12,5.415415415415415,0.0021213146931227,91,63.75629742318219
12,5.425425425425425,0.0007031056463986,91,63.75629742318219
12,5.435435435435435,-0.0056263566407444,91,63.75629742318219
12,5.445445445445445,0.0008799679407657,91,63.75629742318219
12,5.455455455455455,-0.005836805237497,91,63.75629742318219
12,5.465465465465465,-0.0154488615729768,91,63.75629742318219
12,5.475475475475475,-0.0303656811420717,91,63.75629742318219
12,5.485485485485485,-0.0334252373981354,91,63.75629742318219
12,5.495495495495495,-0.0581851556579554,91,63.75629742318219
12,5.505505505505505,-0.0771386480820112,91,63.75629742318219
12,5.515515515515515,-0.1101566838219617,91,63.75629742318219
12,5.525525525525525,-0.1454229811876303,91,63.75629742318219
12,5.535535535535535,-0.1771976264224841,91,63.75629742318219
12,5.545545545545545,-0.2120406219570495,91,63.75629742318219
12,5.555555555555555,-0.261637656901185,91,63.75629742318219
12,5.565565565565565,-0.3068507535066209,91,63.75629742318219
12,5.575575575575575,-0.3528950854187959,91,63.75629742318219
12,5.585585585585585,-0.4048944578675069,91,63.75629742318219
12,5.595595595595595,-0.4640706115267977,91,63.75629742318219
12,5.605605605605605,-0.5131155209481045,91,63.75629742318219
12,5.615615615615615,-0.5453523050095045,91,63.75629742318219
12,5.625625625625625,-0.5978422471374069,91,63.75629742318219
12,5.635635635635635,-0.6468482040528041,91,63.75629742318219
12,5.645645645645645,-0.6860442369056593,91,63.75629742318219
12,5.655655655655655,-0.7130357191125676,91,63.75629742318219
12,5.665665665665665,-0.7442140233003107,91,63.75629742318219
12,5.675675675675675,-0.7614209974533377,91,63.75629742318219
12,5.685685685685685,-0.7860999901797532,91,63.75629742318219
12,5.695695695695696,-0.786466439039157,91,63.75629742318219
12,5.7057057057057055,-0.7654958783784322,91,63.75629742318219
12,5.715715715715716,-0.7475212836094816,91,63.75629742318219
12,5.7257257257257255,-0.7292236707643661,91,63.75629742318219
12,5.735735735735736,-0.6972202602072698,91,63.75629742318219
12,5.7457457457457455,-0.6559804964853944,91,63.75629742318219
12,5.755755755755756,-0.5935497594148411,91,63.75629742318219
12,5.7657657657657655,-0.5580670744655886,91,63.75629742318219
12,5.775775775775776,-0.4704509892294725,91,63.75629742318219
12,5.7857857857857855,-0.3994990111355703,91,63.75629742318219
12,5.795795795795796,-0.3224886328246813,91,63.75629742318219
12,5.8058058058058055,-0.2414556145714386,91,63.75629742318219
12,5.815815815815816,-0.1490886338888554,91,63.75629742318219
12,5.8258258258258255,-0.0687187063837854,91,63.75629742318219
12,5.835835835835836,0.0268085759501745,91,63.75629742318219
12,5.8458458458458455,0.1075162199478182,91,63.75629742318219
12,5.855855855855856,0.2010323235852904,91,63.75629742318219
12,5.865865865865866,0.2815554289519383,91,63.75629742318219
12,5.875875875875876,0.3631099787433324,91,63.75629742318219
12,5.885885885885886,0.4451848606726488,91,63.75629742318219
12,5.895895895895896,0.5224895231173383,91,63.75629742318219
12,5.905905905905906,0.5754212529301146,91,63.75629742318219
12,5.915915915915916,0.6398035023806274,91,63.75629742318219
12,5.925925925925926,0.6816273633904316,91,63.75629742318219
12,5.935935935935936,0.7187454726004715,91,63.75629742318219
12,5.945945945945946,0.7466392654178334,91,63.75629742318219
12,5.955955955955956,0.7646051961866326,91,63.75629742318219
12,5.965965965965966,0.7793686764101423,91,63.75629742318219
12,5.975975975975976,0.7777051786853664,91,63.75629742318219
12,5.985985985985986,0.7687904092141946,91,63.75629742318219
12,5.995995995995996,0.7578238096500115,91,63.75629742318219
12,6.006006006006006,0.7297745756949975,91,63.75629742318219
12,6.016016016016016,0.6945983848371604,91,63.75629742318219
12,6.026026026026026,0.6620332272369821,91,63.75629742318219
12,6.036036036036036,0.6267352826203231,91,63.75629742318219
12,6.046046046046046,0.579760643030454,91,63.75629742318219
12,6.056056056056056,0.534936875040599,91,63.75629742318219
12,6.066066066066066,0.4793958459885135,91,63.75629742318219
12,6.076076076076076,0.4314300330432892,91,63.75629742318219
12,6.086086086086086,0.3827014285097855,91,63.75629742318219
12,6.096096096096096,0.3305649013399129,91,63.75629742318219
12,6.106106106106106,0.2816755639850172,91,63.75629742318219
12,6.116116116116116,0.2476058905648065,91,63.75629742318219
12,6.126126126126126,0.1871617182958957,91,63.75629742318219
12,6.136136136136136,0.1601850954816815,91,63.75629742318219
12,6.146146146146146,0.1091804108309076,91,63.75629742318219
12,6.156156156156156,0.0879571086875,91,63.75629742318219
12,6.166166166166166,0.0716436890345206,91,63.75629742318219
12,6.176176176176176,0.04346137732577,91,63.75629742318219
12,6.186186186186186,0.0399147998381213,91,63.75629742318219
12,6.196196196196196,0.0215836938831012,91,63.75629742318219
12,6.206206206206206,0.0094768640236853,91,63.75629742318219
12,6.216216216216216,0.0004098361763336,91,63.75629742318219
12,6.226226226226226,-0.0002919693851234,91,63.75629742318219
12,6.236236236236236,-0.0109788058129543,91,63.75629742318219
12,6.246246246246246,-0.007477548347129,91,63.75629742318219
12,6.256256256256256,-0.0045013295639155,91,63.75629742318219
12,6.266266266266266,-0.0076326278687152,91,63.75629742318219
12,6.276276276276276,-0.0046360121011119,91,63.75629742318219
12,6.286286286286286,-0.0063162620016478,91,63.75629742318219
12,6.296296296296296,-0.0154662082898729,91,63.75629742318219
12,6.306306306306306,-0.017773043656908,91,63.75629742318219
12,6.316316316316316,-0.0372294753307222,91,63.75629742318219
12,6.326326326326326,-0.0542137749951186,91,63.75629742318219
12,6.336336336336336,-0.0735962552263031,91,63.75629742318219
12,6.346346346346346,-0.0992908389764197,91,63.75629742318219
12,6.356356356356356,-0.1363971992416833,91,63.75629742318219
12,6.366366366366366,-0.1657174997479758,91,63.75629742318219
12,6.376376376376376,-0.2025576241461764,91,63.75629742318219
12,6.386386386386386,-0.2425953063276818,91,63.75629742318219
12,6.396396396396396,-0.2925067576492905,91,63.75629742318219
12,6.406406406406406,-0.3421063913072276,91,63.75629742318219
12,6.416416416416417,-0.3929481523192967,91,63.75629742318219
12,6.426426426426427,-0.4491931712089829,91,63.75629742318219
12,6.436436436436437,-0.4978169717347918,91,63.75629742318219
12,6.446446446446447,-0.5524741726233641,91,63.75629742318219
12,6.456456456456457,-0.5928846669689479,91,63.75629742318219
12,6.466466466466467,-0.6309733950638312,91,63.75629742318219
12,6.476476476476477,-0.6822924475403718,91,63.75629742318219
12,6.486486486486487,-0.7147165314893146,91,63.75629742318219
12,6.496496496496497,-0.7404918785429202,91,63.75629742318219
12,6.506506506506507,-0.7591260304084628,91,63.75629742318219
12,6.516516516516517,-0.7619219457481086,91,63.75629742318219
12,6.526526526526527,-0.7828676606546021,91,63.75629742318219
12,6.536536536536537,-0.7695430529823403,91,63.75629742318219
12,6.546546546546547,-0.7595522265123962,91,63.75629742318219
12,6.556556556556557,-0.7399994077891908,91,63.75629742318219
12,6.566566566566567,-0.7127609750998104,91,63.75629742318219
12,6.576576576576577,-0.6798654251649583,91,63.75629742318219
12,6.586586586586587,-0.625505612058159,91,63.75629742318219
12,6.596596596596597,-0.5661780904873104,91,63.75629742318219
12,6.606606606606607,-0.4987306032070601,91,63.75629742318219
12,6.616616616616617,-0.4238175963459601,91,63.75629742318219
12,6.626626626626627,-0.3597656993862694,91,63.75629742318219
12,6.636636636636637,-0.2547786895486654,91,63.75629742318219
12,6.646646646646647,-0.1722206300225653,91,63.75629742318219
12,6.656656656656657,-0.09331784565002,91,63.75629742318219
12,6.666666666666667,-0.0083835410110901,91,63.75629742318219
12,6.676676676676677,0.0948665905271937,91,63.75629742318219
12,6.686686686686687,0.1854945606733143,91,63.75629742318219
12,6.696696696696697,0.2723865368211139,91,63.75629742318219
12,6.706706706706707,0.3412898201320422,91,63.75629742318219
12,6.716716716716717,0.4286910751461855,91,63.75629742318219
12,6.726726726726727,0.4942530083358982,91,63.75629742318219
12,6.736736736736737,0.5594903947473125,91,63.75629742318219
12,6.746746746746747,0.6158394071477559,91,63.75629742318219
12,6.756756756756757,0.6701087204426144,91,63.75629742318219
12,6.766766766766767,0.7047600429805615,91,63.75629742318219
12,6.776776776776777,0.7394887246161982,91,63.75629742318219
12,6.786786786786787,0.766682532323434,91,63.75629742318219
12,6.796796796796797,0.7685100014181211,91,63.75629742318219
12,6.806806806806807,0.7802539684824279,91,63.75629742318219
12,6.816816816816817,0.7686936607589039,91,63.75629742318219
12,6.826826826826827,0.7565029847697077,91,63.75629742318219
12,6.836836836836837,0.7439731651901405,91,63.75629742318219
12,6.846846846846847,0.7068411551289734,91,63.75629742318219
12,6.856856856856857,0.6749666545396931,91,63.75629742318219
12,6.866866866866867,0.6312556010241552,91,63.75629742318219
12,6.876876876876877,0.5891982290513313,91,63.75629742318219
12,6.886886886886887,0.5394872342096783,91,63.75629742318219
12,6.896896896896897,0.4925256056025292,91,63.75629742318219
12,6.906906906906907,0.4526385769254368,91,63.75629742318219
12,6.916916916916917,0.3946002818177472,91,63.75629742318219
12,6.926926926926927,0.3466541560139331,91,63.75629742318219
12,6.936936936936937,0.2921916053436074,91,63.75629742318219
12,6.946946946946947,0.2450224192363098,91,63.75629742318219
12,6.956956956956957,0.209648823003124,91,63.75629742318219
12,6.966966966966967,0.1599878911519194,91,63.75629742318219
12,6.976976976976977,0.1393391255518541,91,63.75629742318219
12,6.986986986986987,0.0974855873630974,91,63.75629742318219
12,6.996996996996997,0.0691883922474592,91,63.75629742318219
12,7.007007007007007,0.0559774081654856,91,63.75629742318219
12,7.017017017017017,0.034499054725219,91,63.75629742318219
12,7.027027027027027,0.0240895878724158,91,63.75629742318219
12,7.037037037037037,0.0037213204148263,91,63.75629742318219
12,7.047047047047047,0.0061014582936304,91,63.75629742318219
12,7.057057057057057,0.0030667165317951,91,63.75629742318219
12,7.067067067067067,0.0050319029412523,91,63.75629742318219
12,7.077077077077077,-0.0080198479147944,91,63.75629742318219
12,7.087087087087087,0.0064648060829627,91,63.75629742318219
12,7.097097097097097,0.0037963840700943,91,63.75629742318219
12,7.107107107107107,-0.0049453551493465,91,63.75629742318219
12,7.117117117117117,-0.012321889588631,91,63.75629742318219
12,7.127127127127127,-0.0123924680593607,91,63.75629742318219
12,7.137137137137137,-0.0236244818247106,91,63.75629742318219
12,7.147147147147147,-0.0309595508212704,91,63.75629742318219
12,7.157157157157157,-0.0530382763917082,91,63.75629742318219
12,7.167167167167167,-0.0713513747712238,91,63.75629742318219
12,7.177177177177177,-0.1000338801548151,91,63.75629742318219
12,7.187187187187187,-0.1236086189942633,91,63.75629742318219
12,7.197197197197197,-0.1506226915404623,91,63.75629742318219
12,7.207207207207207,-0.197347677348258,91,63.75629742318219
12,7.217217217217217,-0.2387856602781519,91,63.75629742318219
12,7.227227227227227,-0.2816527300422435,91,63.75629742318219
12,7.237237237237237,-0.3363818283369265,91,63.75629742318219
12,7.247247247247247,-0.382683079378582,91,63.75629742318219
12,7.257257257257257,-0.4256914041945519,91,63.75629742318219
12,7.267267267267267,-0.4876833120190237,91,63.75629742318219
12,7.277277277277277,-0.530678374487581,91,63.75629742318219
12,7.287287287287287,-0.58454574398586,91,63.75629742318219
12,7.297297297297297,-0.6159348639744845,91,63.75629742318219
12,7.307307307307307,-0.6646644568651929,91,63.75629742318219
12,7.317317317317317,-0.6972683396471995,91,63.75629742318219
12,7.327327327327327,-0.7333856436066345,91,63.75629742318219
12,7.337337337337337,-0.7475721396870871,91,63.75629742318219
12,7.347347347347347,-0.7743805523010948,91,63.75629742318219
12,7.357357357357357,-0.7794399451006552,91,63.75629742318219
12,7.367367367367367,-0.7750616093892297,91,63.75629742318219
12,7.377377377377377,-0.7724139923349232,91,63.75629742318219
12,7.387387387387387,-0.7471172201558174,91,63.75629742318219
12,7.397397397397397,-0.7214992075844809,91,63.75629742318219
12,7.407407407407407,-0.6840857301287101,91,63.75629742318219
12,7.4174174174174174,-0.6330805629154864,91,63.75629742318219
12,7.4274274274274275,-0.5770805434647617,91,63.75629742318219
12,7.437437437437437,-0.5120949327648553,91,63.75629742318219
12,7.447447447447447,-0.4480185722450941,91,63.75629742318219
12,7.4574574574574575,-0.365320706273747,91,63.75629742318219
12,7.4674674674674675,-0.2858734443175628,91,63.75629742318219
12,7.477477477477477,-0.199198100098387,91,63.75629742318219
12,7.487487487487487,-0.1066237958556797,91,63.75629742318219
12,7.4974974974974975,-0.0249158212371581,91,63.75629742318219
12,7.5075075075075075,0.0640929748532526,91,63.75629742318219
12,7.517517517517517,0.1575173171892274,91,63.75629742318219
12,7.527527527527527,0.2441607960280074,91,63.75629742318219
12,7.5375375375375375,0.3314513098854589,91,63.75629742318219
12,7.5475475475475475,0.4041196073823473,91,63.75629742318219
12,7.557557557557557,0.4836385466218968,91,63.75629742318219
12,7.567567567567567,0.549003786149002,91,63.75629742318219
12,7.5775775775775776,0.5996818495496344,91,63.75629742318219
12,7.587587587587588,0.6592471786430062,91,63.75629742318219
12,7.597597597597598,0.6934086141743132,91,63.75629742318219
12,7.607607607607608,0.7398031556906834,91,63.75629742318219
12,7.617617617617618,0.7609100828995735,91,63.75629742318219
12,7.627627627627628,0.7680523209092902,91,63.75629742318219
12,7.637637637637638,0.7776846182112306,91,63.75629742318219
12,7.647647647647648,0.775209592761399,91,63.75629742318219
12,7.657657657657658,0.7677758330851924,91,63.75629742318219
12,7.667667667667668,0.7436169823647979,91,63.75629742318219
12,7.677677677677678,0.7246748693080868,91,63.75629742318219
12,7.687687687687688,0.6877146690582379,91,63.75629742318219
12,7.697697697697698,0.6500362063584854,91,63.75629742318219
12,7.707707707707708,0.608067366900541,91,63.75629742318219
12,7.717717717717718,0.5497444867364144,91,63.75629742318219
12,7.727727727727728,0.5067026098332482,91,63.75629742318219
12,7.737737737737738,0.4577443715057974,91,63.75629742318219
12,7.747747747747748,0.4093931891318472,91,63.75629742318219
12,7.757757757757758,0.3487216638925812,91,63.75629742318219
12,7.767767767767768,0.3009276628314933,91,63.75629742318219
12,7.777777777777778,0.2623626321083975,91,63.75629742318219
12,7.787787787787788,0.2167489106342507,91,63.75629742318219
12,7.797797797797798,0.1754756805413749,91,63.75629742318219
12,7.807807807807808,0.1420881026951526,91,63.75629742318219
12,7.817817817817818,0.11289923814374,91,63.75629742318219
12,7.827827827827828,0.0796184131170609,91,63.75629742318219
12,7.837837837837838,0.0634102064439778,91,63.75629742318219
12,7.847847847847848,0.0470922046694265,91,63.75629742318219
12,7.857857857857858,0.0199769497535162,91,63.75629742318219
12,7.867867867867868,0.0256983730664263,91,63.75629742318219
12,7.877877877877878,0.0103636790773875,91,63.75629742318219
12,7.887887887887888,0.0031748778635249,91,63.75629742318219
12,7.897897897897898,0.0020458432841501,91,63.75629742318219
12,7.907907907907908,-0.0067876802986451,91,63.75629742318219
12,7.917917917917918,0.0012602969421043,91,63.75629742318219
12,7.927927927927928,0.0042433658941588,91,63.75629742318219
12,7.937937937937938,-0.0075850551659975,91,63.75629742318219
12,7.947947947947948,-0.0062755918000281,91,63.75629742318219
12,7.957957957957958,-0.0079573119786583,91,63.75629742318219
12,7.967967967967968,-0.0109763672209273,91,63.75629742318219
12,7.977977977977978,-0.026434756933277,91,63.75629742318219
12,7.987987987987988,-0.0492996987269621,91,63.75629742318219
12,7.997997997997998,-0.0717496974726978,91,63.75629742318219
12,8.008008008008009,-0.086283018569652,91,63.75629742318219
12,8.018018018018019,-0.1185658844371719,91,63.75629742318219
12,8.028028028028029,-0.1519788469259878,91,63.75629742318219
12,8.038038038038039,-0.1898143235955434,91,63.75629742318219
12,8.048048048048049,-0.2375414048898539,91,63.75629742318219
12,8.058058058058059,-0.273783286048533,91,63.75629742318219
12,8.068068068068069,-0.3130370067207634,91,63.75629742318219
12,8.078078078078079,-0.3722285233126666,91,63.75629742318219
12,8.088088088088089,-0.417000267251992,91,63.75629742318219
12,8.098098098098099,-0.4659995791748617,91,63.75629742318219
12,8.108108108108109,-0.5243694813905095,91,63.75629742318219
12,8.118118118118119,-0.5755669127348506,91,63.75629742318219
12,8.128128128128129,-0.6154918937059872,91,63.75629742318219
12,8.138138138138139,-0.6577859168649058,91,63.75629742318219
12,8.148148148148149,-0.6937161288259449,91,63.75629742318219
12,8.158158158158159,-0.725261820426113,91,63.75629742318219
12,8.168168168168169,-0.7429825580849515,91,63.75629742318219
12,8.178178178178179,-0.7682172940337533,91,63.75629742318219
12,8.188188188188189,-0.7802801145538377,91,63.75629742318219
12,8.198198198198199,-0.7803084825531664,91,63.75629742318219
12,8.208208208208209,-0.7677300707419416,91,63.75629742318219
12,8.218218218218219,-0.7504018781056916,91,63.75629742318219
12,8.228228228228229,-0.724842304146292,91,63.75629742318219
12,8.238238238238239,-0.7006413868176175,91,63.75629742318219
12,8.248248248248249,-0.6505107893834864,91,63.75629742318219
12,8.258258258258259,-0.5954203342656418,91,63.75629742318219
12,8.268268268268269,-0.5366882021388671,91,63.75629742318219
12,8.278278278278279,-0.4621158032532237,91,63.75629742318219
12,8.288288288288289,-0.3839210983177673,91,63.75629742318219
12,8.298298298298299,-0.308401890452959,91,63.75629742318219
12,8.308308308308309,-0.2229097955934453,91,63.75629742318219
12,8.318318318318319,-0.1386107078833213,91,63.75629742318219
12,8.328328328328329,-0.0453149838346997,91,63.75629742318219
12,8.338338338338339,0.0380991396685289,91,63.75629742318219
12,8.348348348348349,0.1398937539573341,91,63.75629742318219
12,8.358358358358359,0.2246035060362138,91,63.75629742318219
12,8.368368368368369,0.3087364343058845,91,63.75629742318219
12,8.378378378378379,0.3955876173695487,91,63.75629742318219
12,8.388388388388389,0.4623427704717716,91,63.75629742318219
12,8.398398398398399,0.5265466532931972,91,63.75629742318219
12,8.408408408408409,0.5911315767510862,91,63.75629742318219
12,8.418418418418419,0.6495191869939021,91,63.75629742318219
12,8.428428428428429,0.7033158755434687,91,63.75629742318219
12,8.438438438438439,0.7302175162152894,91,63.75629742318219
12,8.448448448448449,0.7597602489957659,91,63.75629742318219
12,8.458458458458459,0.778652703678104,91,63.75629742318219
12,8.468468468468469,0.7731039377799769,91,63.75629742318219
12,8.478478478478479,0.783390690357529,91,63.75629742318219
12,8.488488488488489,0.7687282485150013,91,63.75629742318219
12,8.498498498498499,0.7479167334580848,91,63.75629742318219
12,8.508508508508509,0.7396195781154186,91,63.75629742318219
12,8.518518518518519,0.6916192818909553,91,63.75629742318219
12,8.528528528528529,0.6633428988084095,91,63.75629742318219
12,8.538538538538539,0.6101308731392472,91,63.75629742318219
12,8.548548548548549,0.5623633420660972,91,63.75629742318219
12,8.558558558558559,0.5160594301791601,91,63.75629742318219
12,8.568568568568569,0.468886387702165,91,63.75629742318219
12,8.578578578578579,0.4198158266527555,91,63.75629742318219
12,8.588588588588589,0.3619024058898387,91,63.75629742318219
12,8.598598598598599,0.3154934341438561,91,63.75629742318219
12,8.608608608608609,0.2759463572425644,91,63.75629742318219
12,8.618618618618619,0.2326727553899854,91,63.75629742318219
12,8.62862862862863,0.2008084161125427,91,63.75629742318219
12,8.63863863863864,0.1485896666676256,91,63.75629742318219
12,8.64864864864865,0.1135467385643907,91,63.75629742318219
12,8.65865865865866,0.083836682428763,91,63.75629742318219
12,8.66866866866867,0.0622183304314377,91,63.75629742318219
12,8.67867867867868,0.0336278040549907,91,63.75629742318219
12,8.68868868868869,0.0212997676672379,91,63.75629742318219
12,8.6986986986987,0.0270003002412836,91,63.75629742318219
12,8.70870870870871,0.0084753379429719,91,63.75629742318219
12,8.71871871871872,0.0056990026977716,91,63.75629742318219
12,8.72872872872873,-0.0023309315034493,91,63.75629742318219
12,8.73873873873874,0.0033203323062891,91,63.75629742318219
12,8.74874874874875,0.0016076734365605,91,63.75629742318219
12,8.75875875875876,-0.0081483986222397,91,63.75629742318219
12,8.76876876876877,-0.001010568916011,91,63.75629742318219
12,8.77877877877878,-0.0017781527211288,91,63.75629742318219
12,8.78878878878879,-0.0039329989183204,91,63.75629742318219
12,8.7987987987988,-0.0210648636254668,91,63.75629742318219
12,8.80880880880881,-0.025225292690359,91,63.75629742318219
12,8.81881881881882,-0.0337424380899918,91,63.75629742318219
12,8.82882882882883,-0.0542713844634755,91,63.75629742318219
12,8.83883883883884,-0.0789639887749558,91,63.75629742318219
12,8.84884884884885,-0.1147566850309705,91,63.75629742318219
12,8.85885885885886,-0.1321696532274294,91,63.75629742318219
12,8.86886886886887,-0.1707760352664441,91,63.75629742318219
12,8.87887887887888,-0.2136529605761414,91,63.75629742318219
12,8.88888888888889,-0.2587041321859668,91,63.75629742318219
12,8.8988988988989,-0.3038324579520903,91,63.75629742318219
12,8.90890890890891,-0.3586259446559836,91,63.75629742318219
12,8.91891891891892,-0.3994937366309325,91,63.75629742318219
12,8.92892892892893,-0.4627977205217639,91,63.75629742318219
12,8.93893893893894,-0.5075867746740735,91,63.75629742318219
12,8.94894894894895,-0.5635033088448926,91,63.75629742318219
12,8.95895895895896,-0.6010393203691543,91,63.75629742318219
12,8.96896896896897,-0.66362824226878,91,63.75629742318219
12,8.97897897897898,-0.6842321225015078,91,63.75629742318219
12,8.98898898898899,-0.7221490747659685,91,63.75629742318219
12,8.998998998999,-0.742270788823313,91,63.75629742318219
12,9.00900900900901,-0.7609189906380975,91,63.75629742318219
12,9.01901901901902,-0.7758199890342511,91,63.75629742318219
12,9.02902902902903,-0.7856449151635065,91,63.75629742318219
12,9.03903903903904,-0.7746707110374497,91,63.75629742318219
12,9.04904904904905,-0.7625484002962805,91,63.75629742318219
12,9.05905905905906,-0.7375641680574245,91,63.75629742318219
12,9.06906906906907,-0.6963894394337069,91,63.75629742318219
12,9.07907907907908,-0.6552390729298195,91,63.75629742318219
12,9.08908908908909,-0.6039377362945473,91,63.75629742318219
12,9.0990990990991,-0.5537626489215673,91,63.75629742318219
12,9.10910910910911,-0.4797222491485984,91,63.75629742318219
12,9.11911911911912,-0.4084306014304986,91,63.75629742318219
12,9.12912912912913,-0.3223161201876646,91,63.75629742318219
12,9.13913913913914,-0.2463239812388598,91,63.75629742318219
12,9.14914914914915,-0.1525019299327536,91,63.75629742318219
12,9.15915915915916,-0.07063539332646,91,63.75629742318219
12,9.16916916916917,0.0262926342403489,91,63.75629742318219
12,9.17917917917918,0.1163569281543787,91,63.75629742318219
12,9.18918918918919,0.2036187011202413,91,63.75629742318219
12,9.1991991991992,0.2905776417429408,91,63.75629742318219
12,9.20920920920921,0.361005851538513,91,63.75629742318219
12,9.21921921921922,0.4457155896597692,91,63.75629742318219
12,9.22922922922923,0.5100723810944636,91,63.75629742318219
12,9.23923923923924,0.5783285704735585,91,63.75629742318219
12,9.24924924924925,0.6385712875308045,91,63.75629742318219
12,9.25925925925926,0.6815717180060005,91,63.75629742318219
12,9.26926926926927,0.7242620307922625,91,63.75629742318219
12,9.27927927927928,0.7434036583841935,91,63.75629742318219
12,9.28928928928929,0.7642287627977691,91,63.75629742318219
12,9.2992992992993,0.7875798155715124,91,63.75629742318219
12,9.30930930930931,0.7795725510546863,91,63.75629742318219
12,9.31931931931932,0.7624031796602527,91,63.75629742318219
12,9.32932932932933,0.7547381545086082,91,63.75629742318219
12,9.33933933933934,0.7360700255071493,91,63.75629742318219
12,9.34934934934935,0.7067989543186308,91,63.75629742318219
12,9.35935935935936,0.6572126908014111,91,63.75629742318219
12,9.36936936936937,0.6297661830315403,91,63.75629742318219
12,9.37937937937938,0.5806936574274665,91,63.75629742318219
12,9.38938938938939,0.5330636235466298,91,63.75629742318219
12,9.3993993993994,0.4794784718351488,91,63.75629742318219
12,9.40940940940941,0.4275687161431536,91,63.75629742318219
12,9.41941941941942,0.3796505470186599,91,63.75629742318219
12,9.42942942942943,0.3317404350303446,91,63.75629742318219
12,9.43943943943944,0.2854229676094262,91,63.75629742318219
12,9.44944944944945,0.2306514667265941,91,63.75629742318219
12,9.45945945945946,0.1921542965757903,91,63.75629742318219
12,9.46946946946947,0.1606671225655954,91,63.75629742318219
12,9.47947947947948,0.1279046093929764,91,63.75629742318219
12,9.48948948948949,0.0887007517050219,91,63.75629742318219
12,9.4994994994995,0.0647886054260328,91,63.75629742318219
12,9.50950950950951,0.0500334039044953,91,63.75629742318219
12,9.51951951951952,0.0376060404423822,91,63.75629742318219
12,9.52952952952953,0.0173674199892929,91,63.75629742318219
12,9.53953953953954,0.0106405980237941,91,63.75629742318219
12,9.54954954954955,0.0071160912271567,91,63.75629742318219
12,9.55955955955956,0.003986073259071,91,63.75629742318219
12,9.56956956956957,-0.0009553036952992,91,63.75629742318219
12,9.57957957957958,-0.0052317240758368,91,63.75629742318219
12,9.58958958958959,0.005398094521698,91,63.75629742318219
12,9.5995995995996,-0.0004620508108737,91,63.75629742318219
12,9.60960960960961,-0.0013454204884649,91,63.75629742318219
12,9.61961961961962,-0.0093109386108056,91,63.75629742318219
12,9.62962962962963,-0.007156492195236,91,63.75629742318219
12,9.63963963963964,-0.0261105165137657,91,63.75629742318219
12,9.64964964964965,-0.0351233951549465,91,63.75629742318219
12,9.65965965965966,-0.0552744125905374,91,63.75629742318219
12,9.66966966966967,-0.074836420221714,91,63.75629742318219
12,9.67967967967968,-0.0994296298187349,91,63.75629742318219
12,9.68968968968969,-0.1259294426024931,91,63.75629742318219
12,9.6996996996997,-0.169818155584282,91,63.75629742318219
12,9.70970970970971,-0.2106397853461607,91,63.75629742318219
12,9.71971971971972,-0.2396784913829041,91,63.75629742318219
12,9.72972972972973,-0.2893934293585344,91,63.75629742318219
12,9.73973973973974,-0.3496297546042297,91,63.75629742318219
12,9.74974974974975,-0.3888253130269751,91,63.75629742318219
12,9.75975975975976,-0.4458493858685997,91,63.75629742318219
12,9.76976976976977,-0.5023448829451217,91,63.75629742318219
12,9.77977977977978,-0.5510501692884523,91,63.75629742318219
12,9.78978978978979,-0.5889527272142236,91,63.75629742318219
12,9.7997997997998,-0.6437433703024694,91,63.75629742318219
12,9.80980980980981,-0.664884721075931,91,63.75629742318219
12,9.81981981981982,-0.7059162187596428,91,63.75629742318219
12,9.82982982982983,-0.7442937807190417,91,63.75629742318219
12,9.83983983983984,-0.7600826327992729,91,63.75629742318219
12,9.84984984984985,-0.7722283557096219,91,63.75629742318219
12,9.85985985985986,-0.779940622801654,91,63.75629742318219
12,9.86986986986987,-0.7746895266394394,91,63.75629742318219
12,9.87987987987988,-0.7691940602114298,91,63.75629742318219
12,9.88988988988989,-0.7442845667892563,91,63.75629742318219
12,9.8998998998999,-0.7110584420072666,91,63.75629742318219
12,9.90990990990991,-0.6644446377905541,91,63.75629742318219
12,9.91991991991992,-0.6168022698715141,91,63.75629742318219
12,9.92992992992993,-0.5676161845480062,91,63.75629742318219
12,9.93993993993994,-0.5051797741889311,91,63.75629742318219
12,9.94994994994995,-0.4256896057287102,91,63.75629742318219
12,9.95995995995996,-0.343113410828274,91,63.75629742318219
12,9.96996996996997,-0.2693597601477572,91,63.75629742318219
12,9.97997997997998,-0.1792328452018322,91,63.75629742318219
12,9.98998998998999,-0.0893481469154565,91,63.75629742318219
12,10.0,-0.0033837312814966,91,63.75629742318219
