Subject_ID,Time,PPG,HR,HRV
8,0.0,0.003151728646853,68,88.21327519422114
8,0.01001001001001,0.0921211744699557,68,88.21327519422114
8,0.02002002002002,0.1749119022917683,68,88.21327519422114
8,0.03003003003003,0.2636870182524763,68,88.21327519422114
8,0.04004004004004,0.3525816939501447,68,88.21327519422114
8,0.05005005005005,0.4269059209910991,68,88.21327519422114
8,0.06006006006006,0.4985992356394819,68,88.21327519422114
8,0.07007007007007,0.561352940792312,68,88.21327519422114
8,0.08008008008008,0.6237404987795899,68,88.21327519422114
8,0.09009009009009,0.6662933033474578,68,88.21327519422114
8,0.1001001001001,0.7140738076634883,68,88.21327519422114
8,0.1101101101101101,0.7458306328144475,68,88.21327519422114
8,0.1201201201201201,0.7631730668042583,68,88.21327519422114
8,0.1301301301301301,0.7815552320482131,68,88.21327519422114
8,0.1401401401401401,0.7797342710924409,68,88.21327519422114
8,0.1501501501501501,0.7739451782224507,68,88.21327519422114
8,0.1601601601601601,0.7560612744400261,68,88.21327519422114
8,0.1701701701701701,0.7367465807841086,68,88.21327519422114
8,0.1801801801801801,0.7147792346657792,68,88.21327519422114
8,0.1901901901901901,0.6731505159373489,68,88.21327519422114
8,0.2002002002002001,0.6301360098894181,68,88.21327519422114
8,0.2102102102102102,0.5866253615169467,68,88.21327519422114
8,0.2202202202202202,0.5455841963978707,68,88.21327519422114
8,0.2302302302302302,0.4928219589723098,68,88.21327519422114
8,0.2402402402402402,0.4361378079434869,68,88.21327519422114
8,0.2502502502502503,0.3964913059603143,68,88.21327519422114
8,0.2602602602602603,0.3450215804156065,68,88.21327519422114
8,0.2702702702702703,0.299050802843277,68,88.21327519422114
8,0.2802802802802803,0.2481895586888788,68,88.21327519422114
8,0.2902902902902903,0.205177908870098,68,88.21327519422114
8,0.3003003003003003,0.1680846008858278,68,88.21327519422114
8,0.3103103103103103,0.126566047376058,68,88.21327519422114
8,0.3203203203203203,0.1038317827322277,68,88.21327519422114
8,0.3303303303303303,0.0725350852974041,68,88.21327519422114
8,0.3403403403403403,0.0540467026738988,68,88.21327519422114
8,0.3503503503503503,0.0298736613084124,68,88.21327519422114
8,0.3603603603603603,0.0178280506916599,68,88.21327519422114
8,0.3703703703703703,0.0067460327746664,68,88.21327519422114
8,0.3803803803803803,0.0045834795847358,68,88.21327519422114
8,0.3903903903903903,0.0088598980460819,68,88.21327519422114
8,0.4004004004004003,-0.0020796039420226,68,88.21327519422114
8,0.4104104104104104,0.007297020239825,68,88.21327519422114
8,0.4204204204204204,0.0021291413736201,68,88.21327519422114
8,0.4304304304304304,-0.0041282173211459,68,88.21327519422114
8,0.4404404404404404,0.0047996268370768,68,88.21327519422114
8,0.4504504504504504,-0.0008133321296571,68,88.21327519422114
8,0.4604604604604604,-0.0142162867255509,68,88.21327519422114
8,0.4704704704704704,-0.0164883958951853,68,88.21327519422114
8,0.4804804804804805,-0.0320389703110265,68,88.21327519422114
8,0.4904904904904905,-0.0508954065167523,68,88.21327519422114
8,0.5005005005005005,-0.0668135081215913,68,88.21327519422114
8,0.5105105105105106,-0.0956088863092043,68,88.21327519422114
8,0.5205205205205206,-0.1232777085570436,68,88.21327519422114
8,0.5305305305305306,-0.1552375951898255,68,88.21327519422114
8,0.5405405405405406,-0.1919277280897398,68,88.21327519422114
8,0.5505505505505506,-0.2290109718278144,68,88.21327519422114
8,0.5605605605605606,-0.2790843036999293,68,88.21327519422114
8,0.5705705705705706,-0.3270638071506331,68,88.21327519422114
8,0.5805805805805806,-0.3755308706661247,68,88.21327519422114
8,0.5905905905905906,-0.4297282582467839,68,88.21327519422114
8,0.6006006006006006,-0.4805501663682905,68,88.21327519422114
8,0.6106106106106106,-0.5302679782777999,68,88.21327519422114
8,0.6206206206206206,-0.5937190204066148,68,88.21327519422114
8,0.6306306306306306,-0.6231658772000427,68,88.21327519422114
8,0.6406406406406406,-0.6708170858605742,68,88.21327519422114
8,0.6506506506506506,-0.704454753203465,68,88.21327519422114
8,0.6606606606606606,-0.7316947159636324,68,88.21327519422114
8,0.6706706706706707,-0.7536787088624853,68,88.21327519422114
8,0.6806806806806807,-0.7704680134438882,68,88.21327519422114
8,0.6906906906906907,-0.7811673957894846,68,88.21327519422114
8,0.7007007007007007,-0.7824158720639178,68,88.21327519422114
8,0.7107107107107107,-0.7714253378494091,68,88.21327519422114
8,0.7207207207207207,-0.7420931435800813,68,88.21327519422114
8,0.7307307307307307,-0.7182162165700657,68,88.21327519422114
8,0.7407407407407407,-0.6842025223438489,68,88.21327519422114
8,0.7507507507507507,-0.6350305282178598,68,88.21327519422114
8,0.7607607607607607,-0.5812867817080543,68,88.21327519422114
8,0.7707707707707707,-0.5138218587265773,68,88.21327519422114
8,0.7807807807807807,-0.4395848166294178,68,88.21327519422114
8,0.7907907907907907,-0.3627850872311053,68,88.21327519422114
8,0.8008008008008007,-0.2878291543808181,68,88.21327519422114
8,0.8108108108108109,-0.1992438240775117,68,88.21327519422114
8,0.8208208208208209,-0.1074324665754299,68,88.21327519422114
8,0.8308308308308309,-0.0272016903054961,68,88.21327519422114
8,0.8408408408408409,0.0749116388865854,68,88.21327519422114
8,0.8508508508508509,0.1469717735392917,68,88.21327519422114
8,0.8608608608608609,0.2403426813826904,68,88.21327519422114
8,0.8708708708708709,0.3369848649787442,68,88.21327519422114
8,0.8808808808808809,0.4143586236365921,68,88.21327519422114
8,0.8908908908908909,0.4793376130757337,68,88.21327519422114
8,0.9009009009009008,0.5407666056638032,68,88.21327519422114
8,0.9109109109109108,0.6019946331048245,68,88.21327519422114
8,0.9209209209209208,0.6588781603817773,68,88.21327519422114
8,0.9309309309309308,0.6887381673339745,68,88.21327519422114
8,0.9409409409409408,0.7315872302425505,68,88.21327519422114
8,0.950950950950951,0.7551038466117992,68,88.21327519422114
8,0.960960960960961,0.7800520323645248,68,88.21327519422114
8,0.970970970970971,0.784907652991508,68,88.21327519422114
8,0.980980980980981,0.7734917218774976,68,88.21327519422114
8,0.990990990990991,0.7626472618242468,68,88.21327519422114
8,1.001001001001001,0.7486976317880948,68,88.21327519422114
8,1.011011011011011,0.7128261858378695,68,88.21327519422114
8,1.021021021021021,0.6911962705803935,68,88.21327519422114
8,1.031031031031031,0.6404144319487012,68,88.21327519422114
8,1.0410410410410411,0.6026342001224996,68,88.21327519422114
8,1.0510510510510511,0.55098954041232,68,88.21327519422114
8,1.0610610610610611,0.5035697199280658,68,88.21327519422114
8,1.0710710710710711,0.4547066673790743,68,88.21327519422114
8,1.0810810810810811,0.4093321808325525,68,88.21327519422114
8,1.0910910910910911,0.3543375000489249,68,88.21327519422114
8,1.1011011011011012,0.3047208950981928,68,88.21327519422114
8,1.1111111111111112,0.266744063259892,68,88.21327519422114
8,1.1211211211211212,0.2083387749722056,68,88.21327519422114
8,1.1311311311311312,0.1698008410402116,68,88.21327519422114
8,1.1411411411411412,0.1362903919597698,68,88.21327519422114
8,1.1511511511511512,0.107214338136852,68,88.21327519422114
8,1.1611611611611612,0.0749557136232082,68,88.21327519422114
8,1.1711711711711712,0.0565131885450893,68,88.21327519422114
8,1.1811811811811812,0.0452730141943194,68,88.21327519422114
8,1.1911911911911912,0.0270610689011523,68,88.21327519422114
8,1.2012012012012012,0.0079942118206913,68,88.21327519422114
8,1.2112112112112112,0.0012709688629022,68,88.21327519422114
8,1.2212212212212212,0.0081373885460685,68,88.21327519422114
8,1.2312312312312312,0.0094880159882419,68,88.21327519422114
8,1.2412412412412412,-0.0050992768450822,68,88.21327519422114
8,1.2512512512512513,0.0035268229127685,68,88.21327519422114
8,1.2612612612612613,-0.0033517701384686,68,88.21327519422114
8,1.2712712712712713,-0.0053972641277149,68,88.21327519422114
8,1.2812812812812813,0.0027509111657326,68,88.21327519422114
8,1.2912912912912913,0.0006918233877748,68,88.21327519422114
8,1.3013013013013013,-0.0223861594369001,68,88.21327519422114
8,1.3113113113113113,-0.0237591418004686,68,88.21327519422114
8,1.3213213213213213,-0.0387885633667675,68,88.21327519422114
8,1.3313313313313313,-0.0690596351901329,68,88.21327519422114
8,1.3413413413413413,-0.0876985571847766,68,88.21327519422114
8,1.351351351351351,-0.1270730637875241,68,88.21327519422114
8,1.361361361361361,-0.1514870005524107,68,88.21327519422114
8,1.371371371371371,-0.188491737068795,68,88.21327519422114
8,1.3813813813813811,-0.2256485398018392,68,88.21327519422114
8,1.3913913913913911,-0.2722806071694367,68,88.21327519422114
8,1.4014014014014011,-0.3169617734562701,68,88.21327519422114
8,1.4114114114114114,-0.3664982049453616,68,88.21327519422114
8,1.4214214214214214,-0.4046425555734654,68,88.21327519422114
8,1.4314314314314314,-0.4702029786285418,68,88.21327519422114
8,1.4414414414414414,-0.5163160273664095,68,88.21327519422114
8,1.4514514514514514,-0.563738098943324,68,88.21327519422114
8,1.4614614614614614,-0.6131300163995602,68,88.21327519422114
8,1.4714714714714714,-0.6591799004224667,68,88.21327519422114
8,1.4814814814814814,-0.6963421122495376,68,88.21327519422114
8,1.4914914914914914,-0.7258409076842521,68,88.21327519422114
8,1.5015015015015014,-0.7501106244329016,68,88.21327519422114
8,1.5115115115115114,-0.7707394344504473,68,88.21327519422114
8,1.5215215215215214,-0.773333389810687,68,88.21327519422114
8,1.5315315315315314,-0.7830070211116956,68,88.21327519422114
8,1.5415415415415414,-0.7757134876814441,68,88.21327519422114
8,1.5515515515515514,-0.760677593092291,68,88.21327519422114
8,1.5615615615615617,-0.7251610753995649,68,88.21327519422114
8,1.5715715715715717,-0.6899184415963765,68,88.21327519422114
8,1.5815815815815817,-0.6460295393293326,68,88.21327519422114
8,1.5915915915915917,-0.5861604037074013,68,88.21327519422114
8,1.6016016016016017,-0.5362773753571519,68,88.21327519422114
8,1.6116116116116117,-0.4705091606333247,68,88.21327519422114
8,1.6216216216216215,-0.383708916980422,68,88.21327519422114
8,1.6316316316316315,-0.2999643173667757,68,88.21327519422114
8,1.6416416416416415,-0.2227221275850805,68,88.21327519422114
8,1.6516516516516515,-0.1241816029163106,68,88.21327519422114
8,1.6616616616616615,-0.0517491208182178,68,88.21327519422114
8,1.6716716716716715,0.0415044512764171,68,88.21327519422114
8,1.6816816816816818,0.1412378765947441,68,88.21327519422114
8,1.6916916916916918,0.2236928857334456,68,88.21327519422114
8,1.7017017017017018,0.3116512464883953,68,88.21327519422114
8,1.7117117117117118,0.3755751086437571,68,88.21327519422114
8,1.7217217217217218,0.4638974529498639,68,88.21327519422114
8,1.7317317317317318,0.5332134263415798,68,88.21327519422114
8,1.7417417417417418,0.5943643952229558,68,88.21327519422114
8,1.7517517517517518,0.6477781221769736,68,88.21327519422114
8,1.7617617617617618,0.6889714181338096,68,88.21327519422114
8,1.7717717717717718,0.7311377760814609,68,88.21327519422114
8,1.7817817817817818,0.751815091211242,68,88.21327519422114
8,1.7917917917917918,0.7745073033972509,68,88.21327519422114
8,1.8018018018018016,0.784879326003595,68,88.21327519422114
8,1.811811811811812,0.7730425212778309,68,88.21327519422114
8,1.8218218218218216,0.7701683676778551,68,88.21327519422114
8,1.831831831831832,0.7595226859331923,68,88.21327519422114
8,1.8418418418418416,0.7205763688608444,68,88.21327519422114
8,1.851851851851852,0.6972543047286194,68,88.21327519422114
8,1.8618618618618616,0.6599067064280294,68,88.21327519422114
8,1.871871871871872,0.6084200317830979,68,88.21327519422114
8,1.8818818818818817,0.5720027068366057,68,88.21327519422114
8,1.891891891891892,0.5205572478640952,68,88.21327519422114
8,1.901901901901902,0.4570067846532403,68,88.21327519422114
8,1.911911911911912,0.4199833688437268,68,88.21327519422114
8,1.921921921921922,0.3662910499165338,68,88.21327519422114
8,1.931931931931932,0.3193421674533094,68,88.21327519422114
8,1.941941941941942,0.2549065856280146,68,88.21327519422114
8,1.951951951951952,0.2305652731802453,68,88.21327519422114
8,1.961961961961962,0.1926738379255415,68,88.21327519422114
8,1.971971971971972,0.1540749634156111,68,88.21327519422114
8,1.981981981981982,0.1056534725280724,68,88.21327519422114
8,1.991991991991992,0.0955581751379669,68,88.21327519422114
8,2.002002002002002,0.0604620052984837,68,88.21327519422114
8,2.012012012012012,0.0379530638623233,68,88.21327519422114
8,2.022022022022022,0.0374838714244166,68,88.21327519422114
8,2.032032032032032,0.0104827405555395,68,88.21327519422114
8,2.042042042042042,0.0045162577689317,68,88.21327519422114
8,2.052052052052052,-0.0037142062941363,68,88.21327519422114
8,2.062062062062062,0.0122504891455088,68,88.21327519422114
8,2.072072072072072,0.0063587033575564,68,88.21327519422114
8,2.0820820820820822,-0.0054306240411068,68,88.21327519422114
8,2.092092092092092,-0.0001342552619502,68,88.21327519422114
8,2.1021021021021022,-0.0047915123750538,68,88.21327519422114
8,2.112112112112112,0.0035332414488692,68,88.21327519422114
8,2.1221221221221223,-0.0061975231745168,68,88.21327519422114
8,2.1321321321321323,-0.0197576236644813,68,88.21327519422114
8,2.1421421421421423,-0.0147474950319021,68,88.21327519422114
8,2.1521521521521523,-0.0396881705852028,68,88.21327519422114
8,2.1621621621621623,-0.0597167129847922,68,88.21327519422114
8,2.1721721721721723,-0.0840735382883944,68,88.21327519422114
8,2.1821821821821823,-0.1117263152881695,68,88.21327519422114
8,2.1921921921921923,-0.1428239658051486,68,88.21327519422114
8,2.2022022022022023,-0.1710844969831848,68,88.21327519422114
8,2.2122122122122123,-0.2115404880485119,68,88.21327519422114
8,2.2222222222222223,-0.2642061981694753,68,88.21327519422114
8,2.2322322322322323,-0.3077081109769827,68,88.21327519422114
8,2.2422422422422423,-0.3605822448069304,68,88.21327519422114
8,2.2522522522522523,-0.4061709256675672,68,88.21327519422114
8,2.2622622622622623,-0.4619899845320024,68,88.21327519422114
8,2.2722722722722724,-0.504720124511369,68,88.21327519422114
8,2.2822822822822824,-0.5536461232115699,68,88.21327519422114
8,2.2922922922922924,-0.6064293924279266,68,88.21327519422114
8,2.3023023023023024,-0.6519695738653514,68,88.21327519422114
8,2.3123123123123124,-0.6852616562906712,68,88.21327519422114
8,2.3223223223223224,-0.7113358355042811,68,88.21327519422114
8,2.3323323323323324,-0.7438396966933799,68,88.21327519422114
8,2.3423423423423424,-0.7603258788941496,68,88.21327519422114
8,2.3523523523523524,-0.7728913521399953,68,88.21327519422114
8,2.3623623623623624,-0.7822261971285023,68,88.21327519422114
8,2.3723723723723724,-0.7793565725141526,68,88.21327519422114
8,2.3823823823823824,-0.7604720201303284,68,88.21327519422114
8,2.3923923923923924,-0.7303795957843422,68,88.21327519422114
8,2.4024024024024024,-0.7027027459592882,68,88.21327519422114
8,2.4124124124124124,-0.6619924723738775,68,88.21327519422114
8,2.4224224224224224,-0.6064618306750503,68,88.21327519422114
8,2.4324324324324325,-0.5488283634546863,68,88.21327519422114
8,2.4424424424424425,-0.4763618979599103,68,88.21327519422114
8,2.4524524524524525,-0.4015586469339807,68,88.21327519422114
8,2.4624624624624625,-0.329760202188393,68,88.21327519422114
8,2.4724724724724725,-0.246352499739302,68,88.21327519422114
8,2.4824824824824825,-0.1624287353234262,68,88.21327519422114
8,2.4924924924924925,-0.0676219447856366,68,88.21327519422114
8,2.5025025025025025,0.024431466018025,68,88.21327519422114
8,2.5125125125125125,0.1116135397066397,68,88.21327519422114
8,2.5225225225225225,0.2053946431991126,68,88.21327519422114
8,2.5325325325325325,0.2943792345133597,68,88.21327519422114
8,2.5425425425425425,0.3696062923221434,68,88.21327519422114
8,2.5525525525525525,0.4468677910191549,68,88.21327519422114
8,2.5625625625625625,0.5151690181693387,68,88.21327519422114
8,2.5725725725725725,0.5818387928435923,68,88.21327519422114
8,2.5825825825825826,0.6367724384004668,68,88.21327519422114
8,2.592592592592593,0.678070773138335,68,88.21327519422114
8,2.6026026026026026,0.7184676390334509,68,88.21327519422114
8,2.612612612612613,0.7387003202007663,68,88.21327519422114
8,2.6226226226226226,0.7706282125177144,68,88.21327519422114
8,2.6326326326326326,0.7816496714309586,68,88.21327519422114
8,2.6426426426426426,0.7835858712796236,68,88.21327519422114
8,2.6526526526526526,0.7772991590924555,68,88.21327519422114
8,2.6626626626626626,0.7559773574221031,68,88.21327519422114
8,2.6726726726726726,0.7368371685466861,68,88.21327519422114
8,2.6826826826826826,0.7077435826570966,68,88.21327519422114
8,2.6926926926926926,0.663477081356381,68,88.21327519422114
8,2.702702702702702,0.6224649788951835,68,88.21327519422114
8,2.7127127127127126,0.5836192523581059,68,88.21327519422114
8,2.722722722722722,0.5351720095087862,68,88.21327519422114
8,2.7327327327327327,0.4804518670977077,68,88.21327519422114
8,2.7427427427427427,0.4326987681319961,68,88.21327519422114
8,2.7527527527527527,0.3814461796279745,68,88.21327519422114
8,2.7627627627627627,0.3327825133159358,68,88.21327519422114
8,2.7727727727727727,0.2849802846376394,68,88.21327519422114
8,2.7827827827827827,0.2383795875298081,68,88.21327519422114
8,2.7927927927927927,0.1895966355367933,68,88.21327519422114
8,2.8028028028028027,0.1544343805417295,68,88.21327519422114
8,2.8128128128128127,0.1237493488931214,68,88.21327519422114
8,2.8228228228228227,0.0907621529562894,68,88.21327519422114
8,2.8328328328328327,0.0598686668232101,68,88.21327519422114
8,2.8428428428428427,0.0387225836984133,68,88.21327519422114
8,2.8528528528528527,0.0330307135612633,68,88.21327519422114
8,2.8628628628628627,0.0184980822488817,68,88.21327519422114
8,2.8728728728728727,0.0065822326786495,68,88.21327519422114
8,2.8828828828828827,-0.0018839292477353,68,88.21327519422114
8,2.8928928928928928,-0.0092528100105,68,88.21327519422114
8,2.9029029029029028,0.0064129955839641,68,88.21327519422114
8,2.9129129129129128,-0.0013077588627294,68,88.21327519422114
8,2.9229229229229228,-0.0023314595612666,68,88.21327519422114
8,2.932932932932933,0.0038218246477653,68,88.21327519422114
8,2.942942942942943,-0.0077553514597893,68,88.21327519422114
8,2.952952952952953,0.0011384518553458,68,88.21327519422114
8,2.962962962962963,-0.010236692723578,68,88.21327519422114
8,2.972972972972973,-0.0309087768743257,68,88.21327519422114
8,2.982982982982983,-0.0321926793705188,68,88.21327519422114
8,2.992992992992993,-0.0590667988938818,68,88.21327519422114
8,3.003003003003003,-0.0757027959157162,68,88.21327519422114
8,3.013013013013013,-0.1034929864672911,68,88.21327519422114
8,3.023023023023023,-0.1377449303660504,68,88.21327519422114
8,3.033033033033033,-0.1775608922197439,68,88.21327519422114
8,3.043043043043043,-0.20739055805113,68,88.21327519422114
8,3.053053053053053,-0.2559097734840629,68,88.21327519422114
8,3.063063063063063,-0.2992971252075254,68,88.21327519422114
8,3.073073073073073,-0.3495747333602412,68,88.21327519422114
8,3.083083083083083,-0.3950882207490746,68,88.21327519422114
8,3.093093093093093,-0.4357181109551852,68,88.21327519422114
8,3.103103103103103,-0.4903143055595733,68,88.21327519422114
8,3.113113113113113,-0.544610453147181,68,88.21327519422114
8,3.123123123123123,-0.5940975061443962,68,88.21327519422114
8,3.133133133133133,-0.6340144092244103,68,88.21327519422114
8,3.143143143143143,-0.6787774403342997,68,88.21327519422114
8,3.153153153153153,-0.7175454217160235,68,88.21327519422114
8,3.163163163163163,-0.7380464261219104,68,88.21327519422114
8,3.173173173173173,-0.763243275408356,68,88.21327519422114
8,3.183183183183183,-0.7759545919785781,68,88.21327519422114
8,3.193193193193193,-0.7709061813580428,68,88.21327519422114
8,3.203203203203203,-0.7832807969147524,68,88.21327519422114
8,3.2132132132132134,-0.7689132208023141,68,88.21327519422114
8,3.2232232232232234,-0.7460698188601012,68,88.21327519422114
8,3.2332332332332334,-0.7064257458964086,68,88.21327519422114
8,3.2432432432432434,-0.6691471227224796,68,88.21327519422114
8,3.253253253253253,-0.6230216684774069,68,88.21327519422114
8,3.2632632632632634,-0.5650296512055057,68,88.21327519422114
8,3.273273273273273,-0.4933209152505626,68,88.21327519422114
8,3.2832832832832834,-0.4423431163505811,68,88.21327519422114
8,3.293293293293293,-0.3456490904699136,68,88.21327519422114
8,3.3033033033033035,-0.2613617465532415,68,88.21327519422114
8,3.313313313313313,-0.181990134696922,68,88.21327519422114
8,3.3233233233233235,-0.0889910670902757,68,88.21327519422114
8,3.333333333333333,0.0105087834852976,68,88.21327519422114
8,3.3433433433433435,0.095492637271527,68,88.21327519422114
8,3.353353353353353,0.1772980786832781,68,88.21327519422114
8,3.3633633633633635,0.2750591411864224,68,88.21327519422114
8,3.373373373373373,0.3415034909555167,68,88.21327519422114
8,3.3833833833833835,0.4247266960095618,68,88.21327519422114
8,3.393393393393393,0.4941728384760819,68,88.21327519422114
8,3.4034034034034035,0.564893728170905,68,88.21327519422114
8,3.413413413413413,0.6161514137845753,68,88.21327519422114
8,3.4234234234234235,0.6708641055384706,68,88.21327519422114
8,3.433433433433433,0.7159872395410066,68,88.21327519422114
8,3.443443443443444,0.7385157572638922,68,88.21327519422114
8,3.4534534534534536,0.7629873388317088,68,88.21327519422114
8,3.463463463463464,0.7684611672254894,68,88.21327519422114
8,3.4734734734734736,0.7875051896459988,68,88.21327519422114
8,3.483483483483484,0.771810916064102,68,88.21327519422114
8,3.4934934934934936,0.7701599001757617,68,88.21327519422114
8,3.503503503503504,0.741606628157652,68,88.21327519422114
8,3.5135135135135136,0.7113824259103364,68,88.21327519422114
8,3.523523523523524,0.6766742042947226,68,88.21327519422114
8,3.5335335335335336,0.636911063103222,68,88.21327519422114
8,3.543543543543544,0.5919941107055814,68,88.21327519422114
8,3.5535535535535536,0.5448547493496305,68,88.21327519422114
8,3.563563563563564,0.4925301674189711,68,88.21327519422114
8,3.5735735735735736,0.4455708062961054,68,88.21327519422114
8,3.583583583583584,0.3922503204153944,68,88.21327519422114
8,3.5935935935935936,0.345210918297587,68,88.21327519422114
8,3.603603603603604,0.2902159876960546,68,88.21327519422114
8,3.6136136136136137,0.2440487404544145,68,88.21327519422114
8,3.623623623623624,0.2158236468511252,68,88.21327519422114
8,3.6336336336336337,0.1634081471988851,68,88.21327519422114
8,3.643643643643644,0.1309876002507397,68,88.21327519422114
8,3.6536536536536537,0.0984227952165185,68,88.21327519422114
8,3.663663663663664,0.0752947731632536,68,88.21327519422114
8,3.6736736736736737,0.0503667621275431,68,88.21327519422114
8,3.683683683683684,0.0253091178948238,68,88.21327519422114
8,3.6936936936936937,0.0223853144567784,68,88.21327519422114
8,3.703703703703704,0.0113291787918461,68,88.21327519422114
8,3.7137137137137137,0.0083940853811005,68,88.21327519422114
8,3.723723723723724,0.0045966708942883,68,88.21327519422114
8,3.7337337337337337,-0.0022117569674166,68,88.21327519422114
8,3.743743743743744,0.0026622683751171,68,88.21327519422114
8,3.7537537537537538,-0.0114495532009334,68,88.21327519422114
8,3.763763763763764,-0.0019692703732654,68,88.21327519422114
8,3.7737737737737738,-0.0036242500785228,68,88.21327519422114
8,3.783783783783784,-0.0020052736921209,68,88.21327519422114
8,3.793793793793794,-0.003549904283492,68,88.21327519422114
8,3.803803803803804,-0.0193695330196876,68,88.21327519422114
8,3.813813813813814,-0.0336862703268559,68,88.21327519422114
8,3.823823823823824,-0.0497339512666482,68,88.21327519422114
8,3.833833833833834,-0.0762745454043875,68,88.21327519422114
8,3.843843843843844,-0.094626569724847,68,88.21327519422114
8,3.853853853853854,-0.1285908310570435,68,88.21327519422114
8,3.863863863863864,-0.1520806524457292,68,88.21327519422114
8,3.873873873873874,-0.1838408990970132,68,88.21327519422114
8,3.883883883883884,-0.2354748137023686,68,88.21327519422114
8,3.893893893893894,-0.284776834401523,68,88.21327519422114
8,3.903903903903904,-0.3261639340432364,68,88.21327519422114
8,3.913913913913914,-0.3767054160580111,68,88.21327519422114
8,3.923923923923924,-0.4248234075289434,68,88.21327519422114
8,3.933933933933934,-0.4827800881695352,68,88.21327519422114
8,3.943943943943944,-0.527503279616032,68,88.21327519422114
8,3.953953953953954,-0.5808493018775087,68,88.21327519422114
8,3.963963963963964,-0.6299541613908433,68,88.21327519422114
8,3.973973973973974,-0.6646906418192211,68,88.21327519422114
8,3.983983983983984,-0.6992952725435648,68,88.21327519422114
8,3.993993993993994,-0.7332498102243318,68,88.21327519422114
8,4.004004004004004,-0.7582462323781669,68,88.21327519422114
8,4.014014014014014,-0.7677110039171771,68,88.21327519422114
8,4.024024024024024,-0.7791796463970273,68,88.21327519422114
8,4.034034034034034,-0.7764979070616044,68,88.21327519422114
8,4.044044044044044,-0.7694463807999475,68,88.21327519422114
8,4.054054054054054,-0.7448422521533027,68,88.21327519422114
8,4.064064064064064,-0.7112370791494121,68,88.21327519422114
8,4.074074074074074,-0.6716628014675786,68,88.21327519422114
8,4.084084084084084,-0.6310358519558491,68,88.21327519422114
8,4.094094094094094,-0.5866338593853301,68,88.21327519422114
8,4.104104104104104,-0.5102953747858139,68,88.21327519422114
8,4.114114114114114,-0.4502553319304636,68,88.21327519422114
8,4.124124124124124,-0.3665821458486965,68,88.21327519422114
8,4.134134134134134,-0.2842407490973559,68,88.21327519422114
8,4.144144144144144,-0.1978517556728362,68,88.21327519422114
8,4.1541541541541545,-0.1210837607775765,68,88.21327519422114
8,4.1641641641641645,-0.0251887715190367,68,88.21327519422114
8,4.174174174174175,0.0649276863849188,68,88.21327519422114
8,4.1841841841841845,0.1508064223588236,68,88.21327519422114
8,4.1941941941941945,0.24831484517608,68,88.21327519422114
8,4.2042042042042045,0.3287955185059652,68,88.21327519422114
8,4.214214214214215,0.4000522190223867,68,88.21327519422114
8,4.2242242242242245,0.4815685524542223,68,88.21327519422114
8,4.2342342342342345,0.545990938749196,68,88.21327519422114
8,4.2442442442442445,0.6058859236378861,68,88.21327519422114
8,4.254254254254255,0.6502625412278945,68,88.21327519422114
8,4.2642642642642645,0.7078884072990191,68,88.21327519422114
8,4.2742742742742745,0.727534608020256,68,88.21327519422114
8,4.2842842842842845,0.7494634520976164,68,88.21327519422114
8,4.294294294294295,0.7741769609323786,68,88.21327519422114
8,4.3043043043043046,0.7706801483347037,68,88.21327519422114
8,4.314314314314315,0.7765327778456936,68,88.21327519422114
8,4.324324324324325,0.7655718398526522,68,88.21327519422114
8,4.334334334334335,0.7416383939664569,68,88.21327519422114
8,4.344344344344345,0.72144004877,68,88.21327519422114
8,4.354354354354355,0.6903291550309917,68,88.21327519422114
8,4.364364364364365,0.6500694860297026,68,88.21327519422114
8,4.374374374374375,0.6005762575262183,68,88.21327519422114
8,4.384384384384385,0.5557215749788869,68,88.21327519422114
8,4.394394394394395,0.5180529832672107,68,88.21327519422114
8,4.404404404404405,0.4602013635366908,68,88.21327519422114
8,4.414414414414415,0.4044666551766251,68,88.21327519422114
8,4.424424424424425,0.357696253611448,68,88.21327519422114
8,4.434434434434435,0.3083440847790537,68,88.21327519422114
8,4.444444444444445,0.2653977609415718,68,88.21327519422114
8,4.454454454454455,0.216679731584932,68,88.21327519422114
8,4.464464464464465,0.1750576194989639,68,88.21327519422114
8,4.474474474474475,0.137087770665617,68,88.21327519422114
8,4.484484484484485,0.1066233639972776,68,88.21327519422114
8,4.494494494494495,0.0730969828338523,68,88.21327519422114
8,4.504504504504505,0.0600278791579503,68,88.21327519422114
8,4.514514514514515,0.0354774996301578,68,88.21327519422114
8,4.524524524524525,0.0290655088249502,68,88.21327519422114
8,4.534534534534535,0.0177034517222279,68,88.21327519422114
8,4.544544544544545,0.0052573328758525,68,88.21327519422114
8,4.554554554554555,0.0018943269091815,68,88.21327519422114
8,4.564564564564565,0.0069384622850835,68,88.21327519422114
8,4.574574574574575,-0.0024799063677652,68,88.21327519422114
8,4.584584584584585,-0.0057049286334288,68,88.21327519422114
8,4.594594594594595,0.0008570913283016,68,88.21327519422114
8,4.604604604604605,0.0104462985170623,68,88.21327519422114
8,4.614614614614615,0.0003051114034001,68,88.21327519422114
8,4.624624624624625,-0.0139883618409346,68,88.21327519422114
8,4.634634634634635,-0.0205039394626659,68,88.21327519422114
8,4.644644644644645,-0.0287084632641289,68,88.21327519422114
8,4.654654654654655,-0.0426010654202528,68,88.21327519422114
8,4.664664664664665,-0.0686556558408093,68,88.21327519422114
8,4.674674674674675,-0.085125212254401,68,88.21327519422114
8,4.684684684684685,-0.112697268552183,68,88.21327519422114
8,4.694694694694695,-0.1515090889923275,68,88.21327519422114
8,4.704704704704705,-0.1873637983919576,68,88.21327519422114
8,4.714714714714715,-0.232301990208338,68,88.21327519422114
8,4.724724724724725,-0.2760932825557122,68,88.21327519422114
8,4.734734734734735,-0.314090167791551,68,88.21327519422114
8,4.744744744744745,-0.3694725262157948,68,88.21327519422114
8,4.754754754754755,-0.4177448946678956,68,88.21327519422114
8,4.764764764764765,-0.4681783382377892,68,88.21327519422114
8,4.774774774774775,-0.5186414386604543,68,88.21327519422114
8,4.784784784784785,-0.5624436648424996,68,88.21327519422114
8,4.794794794794795,-0.6046691357347144,68,88.21327519422114
8,4.804804804804805,-0.655319607373904,68,88.21327519422114
8,4.814814814814815,-0.6954490840708112,68,88.21327519422114
8,4.824824824824825,-0.723365168276331,68,88.21327519422114
8,4.834834834834835,-0.7517490344947713,68,88.21327519422114
8,4.844844844844845,-0.7655722705415342,68,88.21327519422114
8,4.854854854854855,-0.7798818820074187,68,88.21327519422114
8,4.864864864864865,-0.7752941336771083,68,88.21327519422114
8,4.874874874874875,-0.7767630421563358,68,88.21327519422114
8,4.884884884884885,-0.7537180797898293,68,88.21327519422114
8,4.894894894894895,-0.7314799387177583,68,88.21327519422114
8,4.904904904904905,-0.6869722021561451,68,88.21327519422114
8,4.914914914914915,-0.651276729051608,68,88.21327519422114
8,4.924924924924925,-0.5958063497875348,68,88.21327519422114
8,4.934934934934935,-0.5331743372315434,68,88.21327519422114
8,4.944944944944945,-0.4590591918397171,68,88.21327519422114
8,4.954954954954955,-0.3854936590592197,68,88.21327519422114
8,4.964964964964965,-0.3073676977512967,68,88.21327519422114
8,4.974974974974975,-0.2216962138828792,68,88.21327519422114
8,4.984984984984985,-0.1339026011389499,68,88.21327519422114
8,4.994994994994995,-0.04378923287201,68,88.21327519422114
8,5.005005005005005,0.0374699331064942,68,88.21327519422114
8,5.015015015015015,0.1376016426767051,68,88.21327519422114
8,5.025025025025025,0.2222943167928145,68,88.21327519422114
8,5.035035035035035,0.3053462484007733,68,88.21327519422114
8,5.045045045045045,0.3868317585846597,68,88.21327519422114
8,5.055055055055055,0.456790857390788,68,88.21327519422114
8,5.065065065065065,0.5353333826837877,68,88.21327519422114
8,5.075075075075075,0.5982935157607261,68,88.21327519422114
8,5.085085085085085,0.6469434216179404,68,88.21327519422114
8,5.095095095095095,0.6957505753416617,68,88.21327519422114
8,5.105105105105105,0.7310572890104933,68,88.21327519422114
8,5.115115115115115,0.7439303212646847,68,88.21327519422114
8,5.125125125125125,0.7651719470608251,68,88.21327519422114
8,5.135135135135135,0.788595395118532,68,88.21327519422114
8,5.145145145145145,0.7781263322503662,68,88.21327519422114
8,5.155155155155155,0.7620895692037462,68,88.21327519422114
8,5.165165165165165,0.7438992098086566,68,88.21327519422114
8,5.175175175175175,0.7191826745635974,68,88.21327519422114
8,5.185185185185185,0.6958273960815582,68,88.21327519422114
8,5.195195195195195,0.6557671121641089,68,88.21327519422114
8,5.205205205205205,0.6127040095022371,68,88.21327519422114
8,5.215215215215215,0.5750052804916064,68,88.21327519422114
8,5.225225225225225,0.514390361408577,68,88.21327519422114
8,5.235235235235235,0.4703983440039866,68,88.21327519422114
8,5.245245245245245,0.4167466552143095,68,88.21327519422114
8,5.255255255255255,0.3778665041767616,68,88.21327519422114
8,5.265265265265265,0.3276470750382459,68,88.21327519422114
8,5.275275275275275,0.2654810560422346,68,88.21327519422114
8,5.285285285285285,0.2321091036555869,68,88.21327519422114
8,5.295295295295295,0.1932998858369359,68,88.21327519422114
8,5.305305305305305,0.14986935998371,68,88.21327519422114
8,5.315315315315315,0.1152587346799692,68,88.21327519422114
8,5.325325325325325,0.0886506559906609,68,88.21327519422114
8,5.335335335335335,0.0636835184435361,68,88.21327519422114
8,5.345345345345345,0.0489367916072353,68,88.21327519422114
8,5.355355355355355,0.0294785902177228,68,88.21327519422114
8,5.365365365365365,0.0084389147815201,68,88.21327519422114
8,5.375375375375375,0.0102792037759043,68,88.21327519422114
8,5.385385385385385,-0.0008461460348657,68,88.21327519422114
8,5.395395395395395,-0.0010091213553771,68,88.21327519422114
8,5.405405405405405,-0.0017478331871177,68,88.21327519422114
8,5.415415415415415,-0.0085649993502846,68,88.21327519422114
8,5.425425425425425,-0.0054486395761705,68,88.21327519422114
8,5.435435435435435,-0.0072104053626687,68,88.21327519422114
8,5.445445445445445,-0.0005061448404763,68,88.21327519422114
8,5.455455455455455,-0.0075646575835202,68,88.21327519422114
8,5.465465465465465,-0.0210138069669006,68,88.21327519422114
8,5.475475475475475,-0.0245138272246226,68,88.21327519422114
8,5.485485485485485,-0.036749084140403,68,88.21327519422114
8,5.495495495495495,-0.0487380129805412,68,88.21327519422114
8,5.505505505505505,-0.0796103643508563,68,88.21327519422114
8,5.515515515515515,-0.1060852259936096,68,88.21327519422114
8,5.525525525525525,-0.1398382310300797,68,88.21327519422114
8,5.535535535535535,-0.1565765912906768,68,88.21327519422114
8,5.545545545545545,-0.2232815385305601,68,88.21327519422114
8,5.555555555555555,-0.2622053173323145,68,88.21327519422114
8,5.565565565565565,-0.3104480765055017,68,88.21327519422114
8,5.575575575575575,-0.3610524576784281,68,88.21327519422114
8,5.585585585585585,-0.4180433971064171,68,88.21327519422114
8,5.595595595595595,-0.4541545631037034,68,88.21327519422114
8,5.605605605605605,-0.5052312152355459,68,88.21327519422114
8,5.615615615615615,-0.5546729529931302,68,88.21327519422114
8,5.625625625625625,-0.5905714139593489,68,88.21327519422114
8,5.635635635635635,-0.642659251449935,68,88.21327519422114
8,5.645645645645645,-0.6780337700057416,68,88.21327519422114
8,5.655655655655655,-0.7221201429491029,68,88.21327519422114
8,5.665665665665665,-0.7419565396836161,68,88.21327519422114
8,5.675675675675675,-0.7620130476480025,68,88.21327519422114
8,5.685685685685685,-0.7729655154283285,68,88.21327519422114
8,5.695695695695696,-0.7797379206419317,68,88.21327519422114
8,5.7057057057057055,-0.7725616194404136,68,88.21327519422114
8,5.715715715715716,-0.7649123287603448,68,88.21327519422114
8,5.7257257257257255,-0.7408668568198039,68,88.21327519422114
8,5.735735735735736,-0.7051911336278294,68,88.21327519422114
8,5.7457457457457455,-0.6599606110339753,68,88.21327519422114
8,5.755755755755756,-0.6010355226834264,68,88.21327519422114
8,5.7657657657657655,-0.5553506327586772,68,88.21327519422114
8,5.775775775775776,-0.4816005740790972,68,88.21327519422114
8,5.7857857857857855,-0.4061983777161228,68,88.21327519422114
8,5.795795795795796,-0.3396306630317092,68,88.21327519422114
8,5.8058058058058055,-0.2505674095089661,68,88.21327519422114
8,5.815815815815816,-0.1608008601546582,68,88.21327519422114
8,5.8258258258258255,-0.0734824970146213,68,88.21327519422114
8,5.835835835835836,0.0227661769727444,68,88.21327519422114
8,5.8458458458458455,0.1118183122039225,68,88.21327519422114
8,5.855855855855856,0.197558484245317,68,88.21327519422114
8,5.865865865865866,0.2925511474625463,68,88.21327519422114
8,5.875875875875876,0.3781790321442706,68,88.21327519422114
8,5.885885885885886,0.4316074846530685,68,88.21327519422114
8,5.895895895895896,0.5177693322887349,68,88.21327519422114
8,5.905905905905906,0.5777500107837342,68,88.21327519422114
8,5.915915915915916,0.6384678640160488,68,88.21327519422114
8,5.925925925925926,0.6785733550478739,68,88.21327519422114
8,5.935935935935936,0.7180920338309996,68,88.21327519422114
8,5.945945945945946,0.7505103716515077,68,88.21327519422114
8,5.955955955955956,0.7697022014156144,68,88.21327519422114
8,5.965965965965966,0.779033089154876,68,88.21327519422114
8,5.975975975975976,0.7774982417233848,68,88.21327519422114
8,5.985985985985986,0.7699099308127277,68,88.21327519422114
8,5.995995995995996,0.7537504530298557,68,88.21327519422114
8,6.006006006006006,0.7217425757067361,68,88.21327519422114
8,6.016016016016016,0.7078469919845194,68,88.21327519422114
8,6.026026026026026,0.66671199623876,68,88.21327519422114
8,6.036036036036036,0.6330543167184058,68,88.21327519422114
8,6.046046046046046,0.580768750143512,68,88.21327519422114
8,6.056056056056056,0.5321752106190288,68,88.21327519422114
8,6.066066066066066,0.4779864171038387,68,88.21327519422114
8,6.076076076076076,0.4311708334068576,68,88.21327519422114
8,6.086086086086086,0.3746817317093514,68,88.21327519422114
8,6.096096096096096,0.3307303872337964,68,88.21327519422114
8,6.106106106106106,0.2836992785249652,68,88.21327519422114
8,6.116116116116116,0.243980469188526,68,88.21327519422114
8,6.126126126126126,0.2063489564202936,68,88.21327519422114
8,6.136136136136136,0.1553608488336643,68,88.21327519422114
8,6.146146146146146,0.1178871468099507,68,88.21327519422114
8,6.156156156156156,0.0954799708310336,68,88.21327519422114
8,6.166166166166166,0.0680830972464787,68,88.21327519422114
8,6.176176176176176,0.0449565907300492,68,88.21327519422114
8,6.186186186186186,0.0349018080395574,68,88.21327519422114
8,6.196196196196196,0.0211786963886297,68,88.21327519422114
8,6.206206206206206,0.0174411184912541,68,88.21327519422114
8,6.216216216216216,0.0107329984153299,68,88.21327519422114
8,6.226226226226226,-0.0021384920162012,68,88.21327519422114
8,6.236236236236236,0.0004857943328841,68,88.21327519422114
8,6.246246246246246,0.0008642831288381,68,88.21327519422114
8,6.256256256256256,0.0035898508748393,68,88.21327519422114
8,6.266266266266266,-0.0029184132077627,68,88.21327519422114
8,6.276276276276276,0.0029803125951515,68,88.21327519422114
8,6.286286286286286,-0.0101905670953036,68,88.21327519422114
8,6.296296296296296,-0.0163437602820981,68,88.21327519422114
8,6.306306306306306,-0.0287121725182456,68,88.21327519422114
8,6.316316316316316,-0.0334320642840265,68,88.21327519422114
8,6.326326326326326,-0.0529160542217533,68,88.21327519422114
8,6.336336336336336,-0.0742003194546232,68,88.21327519422114
8,6.346346346346346,-0.1043986409801643,68,88.21327519422114
8,6.356356356356356,-0.1316478975490185,68,88.21327519422114
8,6.366366366366366,-0.1656072466241717,68,88.21327519422114
8,6.376376376376376,-0.1965939295814134,68,88.21327519422114
8,6.386386386386386,-0.2434590758648919,68,88.21327519422114
8,6.396396396396396,-0.29145110722485,68,88.21327519422114
8,6.406406406406406,-0.3419514476875379,68,88.21327519422114
8,6.416416416416417,-0.3943812007172211,68,88.21327519422114
8,6.426426426426427,-0.4506842193673047,68,88.21327519422114
8,6.436436436436437,-0.4977491747050597,68,88.21327519422114
8,6.446446446446447,-0.5345772033943146,68,88.21327519422114
8,6.456456456456457,-0.5892330571014753,68,88.21327519422114
8,6.466466466466467,-0.6410283406746166,68,88.21327519422114
8,6.476476476476477,-0.6678408264721462,68,88.21327519422114
8,6.486486486486487,-0.7085968320370173,68,88.21327519422114
8,6.496496496496497,-0.7372925990929979,68,88.21327519422114
8,6.506506506506507,-0.7514893842693804,68,88.21327519422114
8,6.516516516516517,-0.7838857888132051,68,88.21327519422114
8,6.526526526526527,-0.7773500379128557,68,88.21327519422114
8,6.536536536536537,-0.7779194482524304,68,88.21327519422114
8,6.546546546546547,-0.7665237808596392,68,88.21327519422114
8,6.556556556556557,-0.740485684409248,68,88.21327519422114
8,6.566566566566567,-0.7141339042435014,68,88.21327519422114
8,6.576576576576577,-0.6699817698987036,68,88.21327519422114
8,6.586586586586587,-0.6332750836075434,68,88.21327519422114
8,6.596596596596597,-0.5693635859661561,68,88.21327519422114
8,6.606606606606607,-0.5009777488369506,68,88.21327519422114
8,6.616616616616617,-0.4223091902034601,68,88.21327519422114
8,6.626626626626627,-0.3427424767013181,68,88.21327519422114
8,6.636636636636637,-0.2691090175773321,68,88.21327519422114
8,6.646646646646647,-0.1736385648547975,68,88.21327519422114
8,6.656656656656657,-0.0949228673954876,68,88.21327519422114
8,6.666666666666667,-0.0083804085643676,68,88.21327519422114
8,6.676676676676677,0.0968794249765528,68,88.21327519422114
8,6.686686686686687,0.1731977392414644,68,88.21327519422114
8,6.696696696696697,0.2723924735409192,68,88.21327519422114
8,6.706706706706707,0.3479026366626305,68,88.21327519422114
8,6.716716716716717,0.4329294747040081,68,88.21327519422114
8,6.726726726726727,0.4992727680230579,68,88.21327519422114
8,6.736736736736737,0.5620779548684348,68,88.21327519422114
8,6.746746746746747,0.6278090925861257,68,88.21327519422114
8,6.756756756756757,0.671511487359483,68,88.21327519422114
8,6.766766766766767,0.704447939622555,68,88.21327519422114
8,6.776776776776777,0.7497327915053359,68,88.21327519422114
8,6.786786786786787,0.7617509307200041,68,88.21327519422114
8,6.796796796796797,0.7786752591698561,68,88.21327519422114
8,6.806806806806807,0.785553850640995,68,88.21327519422114
8,6.816816816816817,0.7767952199625989,68,88.21327519422114
8,6.826826826826827,0.7519558822078516,68,88.21327519422114
8,6.836836836836837,0.7396281165478158,68,88.21327519422114
8,6.846846846846847,0.7144091853901339,68,88.21327519422114
8,6.856856856856857,0.6857612468687251,68,88.21327519422114
8,6.866866866866867,0.6372510446008787,68,88.21327519422114
8,6.876876876876877,0.595178595173508,68,88.21327519422114
8,6.886886886886887,0.5476663072875408,68,88.21327519422114
8,6.896896896896897,0.5034461934346879,68,88.21327519422114
8,6.906906906906907,0.4401268683836008,68,88.21327519422114
8,6.916916916916917,0.4055342807095497,68,88.21327519422114
8,6.926926926926927,0.3482450172779385,68,88.21327519422114
8,6.936936936936937,0.2948107507218451,68,88.21327519422114
8,6.946946946946947,0.2499108303809739,68,88.21327519422114
8,6.956956956956957,0.2049504137217322,68,88.21327519422114
8,6.966966966966967,0.1707879961181216,68,88.21327519422114
8,6.976976976976977,0.1302228278935693,68,88.21327519422114
8,6.986986986986987,0.1069697147967414,68,88.21327519422114
8,6.996996996996997,0.0661808123273569,68,88.21327519422114
8,7.007007007007007,0.0604293474141079,68,88.21327519422114
8,7.017017017017017,0.0361895568802679,68,88.21327519422114
8,7.027027027027027,0.0255766884809399,68,88.21327519422114
8,7.037037037037037,0.0051962399913483,68,88.21327519422114
8,7.047047047047047,0.0090823918183081,68,88.21327519422114
8,7.057057057057057,-0.0012650225506316,68,88.21327519422114
8,7.067067067067067,-0.0010694603554672,68,88.21327519422114
8,7.077077077077077,-0.0042524869040193,68,88.21327519422114
8,7.087087087087087,0.0028095286742538,68,88.21327519422114
8,7.097097097097097,-0.0038814744215178,68,88.21327519422114
8,7.107107107107107,0.0075988112689624,68,88.21327519422114
8,7.117117117117117,-0.0021511659102629,68,88.21327519422114
8,7.127127127127127,-0.0134446139451594,68,88.21327519422114
8,7.137137137137137,-0.0153289716469729,68,88.21327519422114
8,7.147147147147147,-0.0404521829150225,68,88.21327519422114
8,7.157157157157157,-0.0462765549471595,68,88.21327519422114
8,7.167167167167167,-0.0702030110056407,68,88.21327519422114
8,7.177177177177177,-0.094165661895695,68,88.21327519422114
8,7.187187187187187,-0.1183760833305964,68,88.21327519422114
8,7.197197197197197,-0.1571600256713356,68,88.21327519422114
8,7.207207207207207,-0.1964098848108978,68,88.21327519422114
8,7.217217217217217,-0.2465004529314843,68,88.21327519422114
8,7.227227227227227,-0.2818128632774103,68,88.21327519422114
8,7.237237237237237,-0.3328544920131124,68,88.21327519422114
8,7.247247247247247,-0.3835579153680739,68,88.21327519422114
8,7.257257257257257,-0.4265321721907311,68,88.21327519422114
8,7.267267267267267,-0.4822102134460913,68,88.21327519422114
8,7.277277277277277,-0.5388789007548798,68,88.21327519422114
8,7.287287287287287,-0.5885258253077112,68,88.21327519422114
8,7.297297297297297,-0.6241826519716213,68,88.21327519422114
8,7.307307307307307,-0.662412699229438,68,88.21327519422114
8,7.317317317317317,-0.7045535508234548,68,88.21327519422114
8,7.327327327327327,-0.7314173610189941,68,88.21327519422114
8,7.337337337337337,-0.751905046078596,68,88.21327519422114
8,7.347347347347347,-0.7733371851525133,68,88.21327519422114
8,7.357357357357357,-0.7717697360166237,68,88.21327519422114
8,7.367367367367367,-0.7848236321607336,68,88.21327519422114
8,7.377377377377377,-0.7687354183934191,68,88.21327519422114
8,7.387387387387387,-0.7434935812797289,68,88.21327519422114
8,7.397397397397397,-0.7179505419081142,68,88.21327519422114
8,7.407407407407407,-0.6735113617438777,68,88.21327519422114
8,7.4174174174174174,-0.6297893845242775,68,88.21327519422114
8,7.4274274274274275,-0.5881662156419815,68,88.21327519422114
8,7.437437437437437,-0.523868428384842,68,88.21327519422114
8,7.447447447447447,-0.4485197300085776,68,88.21327519422114
8,7.4574574574574575,-0.371360443741437,68,88.21327519422114
8,7.4674674674674675,-0.2957021811572906,68,88.21327519422114
8,7.477477477477477,-0.2053724628180828,68,88.21327519422114
8,7.487487487487487,-0.1150688711167248,68,88.21327519422114
8,7.4974974974974975,-0.0261111112404153,68,88.21327519422114
8,7.5075075075075075,0.0696911140770345,68,88.21327519422114
8,7.517517517517517,0.1525617007127674,68,88.21327519422114
8,7.527527527527527,0.2509053947505209,68,88.21327519422114
8,7.5375375375375375,0.3206810453470908,68,88.21327519422114
8,7.5475475475475475,0.4066162608289507,68,88.21327519422114
8,7.557557557557557,0.4817898398235014,68,88.21327519422114
8,7.567567567567567,0.5475900256348321,68,88.21327519422114
8,7.5775775775775776,0.6029851546998342,68,88.21327519422114
8,7.587587587587588,0.6555339837587589,68,88.21327519422114
8,7.597597597597598,0.7048026882415699,68,88.21327519422114
8,7.607607607607608,0.7362887032717633,68,88.21327519422114
8,7.617617617617618,0.7590192647558541,68,88.21327519422114
8,7.627627627627628,0.772388271943948,68,88.21327519422114
8,7.637637637637638,0.7739807057724587,68,88.21327519422114
8,7.647647647647648,0.7665271236617778,68,88.21327519422114
8,7.657657657657658,0.7607857544877958,68,88.21327519422114
8,7.667667667667668,0.7496810615411762,68,88.21327519422114
8,7.677677677677678,0.7140786414511248,68,88.21327519422114
8,7.687687687687688,0.6866690774514932,68,88.21327519422114
8,7.697697697697698,0.6400511107383366,68,88.21327519422114
8,7.707707707707708,0.5979993781623546,68,88.21327519422114
8,7.717717717717718,0.5582405790360235,68,88.21327519422114
8,7.727727727727728,0.5175059440222152,68,88.21327519422114
8,7.737737737737738,0.454753415774094,68,88.21327519422114
8,7.747747747747748,0.4028707496603688,68,88.21327519422114
8,7.757757757757758,0.3559789915553146,68,88.21327519422114
8,7.767767767767768,0.3117935629588561,68,88.21327519422114
8,7.777777777777778,0.2586731064887545,68,88.21327519422114
8,7.787787787787788,0.213760837068959,68,88.21327519422114
8,7.797797797797798,0.1711172897122849,68,88.21327519422114
8,7.807807807807808,0.1428679395589341,68,88.21327519422114
8,7.817817817817818,0.112058121131753,68,88.21327519422114
8,7.827827827827828,0.073343018186822,68,88.21327519422114
8,7.837837837837838,0.0626691849947312,68,88.21327519422114
8,7.847847847847848,0.0380495502423461,68,88.21327519422114
8,7.857857857857858,0.0236292143703496,68,88.21327519422114
8,7.867867867867868,0.0096925162882116,68,88.21327519422114
8,7.877877877877878,0.0007686561251968,68,88.21327519422114
8,7.887887887887888,0.00727365940059,68,88.21327519422114
8,7.897897897897898,0.0048243121256819,68,88.21327519422114
8,7.907907907907908,0.004166335575634,68,88.21327519422114
8,7.917917917917918,0.0032144357614055,68,88.21327519422114
8,7.927927927927928,0.0021369171411266,68,88.21327519422114
8,7.937937937937938,0.001939781573363,68,88.21327519422114
8,7.947947947947948,-0.0053360390982359,68,88.21327519422114
8,7.957957957957958,-0.0141968380369092,68,88.21327519422114
8,7.967967967967968,-0.0132509251991574,68,88.21327519422114
8,7.977977977977978,-0.0253732729673284,68,88.21327519422114
8,7.987987987987988,-0.0442746427978095,68,88.21327519422114
8,7.997997997997998,-0.0622601794846297,68,88.21327519422114
8,8.008008008008009,-0.0878754502539642,68,88.21327519422114
8,8.018018018018019,-0.1068863448685757,68,88.21327519422114
8,8.028028028028029,-0.1479635577026223,68,88.21327519422114
8,8.038038038038039,-0.1771718028581751,68,88.21327519422114
8,8.048048048048049,-0.2181851695884404,68,88.21327519422114
8,8.058058058058059,-0.2792316050046509,68,88.21327519422114
8,8.068068068068069,-0.3217882321422243,68,88.21327519422114
8,8.078078078078079,-0.3678944402801872,68,88.21327519422114
8,8.088088088088089,-0.4197855367102983,68,88.21327519422114
8,8.098098098098099,-0.474211109171881,68,88.21327519422114
8,8.108108108108109,-0.5252202744186971,68,88.21327519422114
8,8.118118118118119,-0.56694954105931,68,88.21327519422114
8,8.128128128128129,-0.6158048341495101,68,88.21327519422114
8,8.138138138138139,-0.6505498440232765,68,88.21327519422114
8,8.148148148148149,-0.7008771656517204,68,88.21327519422114
8,8.158158158158159,-0.7242528201749178,68,88.21327519422114
8,8.168168168168169,-0.7523665162051206,68,88.21327519422114
8,8.178178178178179,-0.7625513902148688,68,88.21327519422114
8,8.188188188188189,-0.7792823627354737,68,88.21327519422114
8,8.198198198198199,-0.7809901025627489,68,88.21327519422114
8,8.208208208208209,-0.768643733451485,68,88.21327519422114
8,8.218218218218219,-0.7504777716221287,68,88.21327519422114
8,8.228228228228229,-0.728829302231712,68,88.21327519422114
8,8.238238238238239,-0.6902665992087822,68,88.21327519422114
8,8.248248248248249,-0.6527938627484018,68,88.21327519422114
8,8.258258258258259,-0.602117911050857,68,88.21327519422114
8,8.268268268268269,-0.5330618301914398,68,88.21327519422114
8,8.278278278278279,-0.475784036058673,68,88.21327519422114
8,8.288288288288289,-0.3906159859385619,68,88.21327519422114
8,8.298298298298299,-0.3019759108489975,68,88.21327519422114
8,8.308308308308309,-0.2223185691586717,68,88.21327519422114
8,8.318318318318319,-0.134865372062234,68,88.21327519422114
8,8.328328328328329,-0.047135092770548,68,88.21327519422114
8,8.338338338338339,0.0406230452829473,68,88.21327519422114
8,8.348348348348349,0.1423635455755496,68,88.21327519422114
8,8.358358358358359,0.2209545546784361,68,88.21327519422114
8,8.368368368368369,0.3070199206924203,68,88.21327519422114
8,8.378378378378379,0.3857080490953372,68,88.21327519422114
8,8.388388388388389,0.4707975780216232,68,88.21327519422114
8,8.398398398398399,0.5344063084873649,68,88.21327519422114
8,8.408408408408409,0.5958956849210632,68,88.21327519422114
8,8.418418418418419,0.6424830606162285,68,88.21327519422114
8,8.428428428428429,0.6907057961599757,68,88.21327519422114
8,8.438438438438439,0.7336381827448598,68,88.21327519422114
8,8.448448448448449,0.7509131063061241,68,88.21327519422114
8,8.458458458458459,0.773437000328462,68,88.21327519422114
8,8.468468468468469,0.7805510290477438,68,88.21327519422114
8,8.478478478478479,0.7805538681339134,68,88.21327519422114
8,8.488488488488489,0.7654174276465777,68,88.21327519422114
8,8.498498498498499,0.7527530287545894,68,88.21327519422114
8,8.508508508508509,0.7318054358950626,68,88.21327519422114
8,8.518518518518519,0.7026447158158518,68,88.21327519422114
8,8.528528528528529,0.6624384748805565,68,88.21327519422114
8,8.538538538538539,0.617823784454513,68,88.21327519422114
8,8.548548548548549,0.5713919535384498,68,88.21327519422114
8,8.558558558558559,0.5189517419679065,68,88.21327519422114
8,8.568568568568569,0.4638041598918669,68,88.21327519422114
8,8.578578578578579,0.411098621346579,68,88.21327519422114
8,8.588588588588589,0.3738877095162387,68,88.21327519422114
8,8.598598598598599,0.3124166140069291,68,88.21327519422114
8,8.608608608608609,0.2661121743339117,68,88.21327519422114
8,8.618618618618619,0.2249683564115753,68,88.21327519422114
8,8.62862862862863,0.1804310326542899,68,88.21327519422114
8,8.63863863863864,0.1407045694945288,68,88.21327519422114
8,8.64864864864865,0.1249714367688551,68,88.21327519422114
8,8.65865865865866,0.0949615088595383,68,88.21327519422114
8,8.66866866866867,0.0681028602096796,68,88.21327519422114
8,8.67867867867868,0.0465110361784277,68,88.21327519422114
8,8.68868868868869,0.0195539527858164,68,88.21327519422114
8,8.6986986986987,0.016473653962468,68,88.21327519422114
8,8.70870870870871,0.0022711006229573,68,88.21327519422114
8,8.71871871871872,-0.0035312512074084,68,88.21327519422114
8,8.72872872872873,0.0044820081259996,68,88.21327519422114
8,8.73873873873874,0.001767790858036,68,88.21327519422114
8,8.74874874874875,0.0032970283703206,68,88.21327519422114
8,8.75875875875876,0.0046575346126391,68,88.21327519422114
8,8.76876876876877,-0.000740664864568,68,88.21327519422114
8,8.77877877877878,-0.0072150315462815,68,88.21327519422114
8,8.78878878878879,-0.002092482839735,68,88.21327519422114
8,8.7987987987988,-0.0192707763195088,68,88.21327519422114
8,8.80880880880881,-0.0283806300169995,68,88.21327519422114
8,8.81881881881882,-0.0364215608038365,68,88.21327519422114
8,8.82882882882883,-0.0611650239386239,68,88.21327519422114
8,8.83883883883884,-0.0838355410538441,68,88.21327519422114
8,8.84884884884885,-0.1202935653146085,68,88.21327519422114
8,8.85885885885886,-0.1311774595435906,68,88.21327519422114
8,8.86886886886887,-0.1731582104946299,68,88.21327519422114
8,8.87887887887888,-0.2274875588266655,68,88.21327519422114
8,8.88888888888889,-0.2694490413505228,68,88.21327519422114
8,8.8988988988989,-0.3020807824760675,68,88.21327519422114
8,8.90890890890891,-0.3551877501720105,68,88.21327519422114
8,8.91891891891892,-0.4034427207979055,68,88.21327519422114
8,8.92892892892893,-0.4614580575271202,68,88.21327519422114
8,8.93893893893894,-0.5096482210078759,68,88.21327519422114
8,8.94894894894895,-0.5604572252683964,68,88.21327519422114
8,8.95895895895896,-0.6089435644825306,68,88.21327519422114
8,8.96896896896897,-0.6467405224261162,68,88.21327519422114
8,8.97897897897898,-0.6931577983303205,68,88.21327519422114
8,8.98898898898899,-0.7134311358625534,68,88.21327519422114
8,8.998998998999,-0.7492507152539132,68,88.21327519422114
8,9.00900900900901,-0.7675991674540499,68,88.21327519422114
8,9.01901901901902,-0.7806548520210612,68,88.21327519422114
8,9.02902902902903,-0.7766518601891298,68,88.21327519422114
8,9.03903903903904,-0.7683055867983732,68,88.21327519422114
8,9.04904904904905,-0.7551218151417801,68,88.21327519422114
8,9.05905905905906,-0.7383659455322543,68,88.21327519422114
8,9.06906906906907,-0.7005142986316061,68,88.21327519422114
8,9.07907907907908,-0.6547864806367664,68,88.21327519422114
8,9.08908908908909,-0.6064434398190647,68,88.21327519422114
8,9.0990990990991,-0.5493600385256183,68,88.21327519422114
8,9.10910910910911,-0.4711245969706561,68,88.21327519422114
8,9.11911911911912,-0.4087634797018207,68,88.21327519422114
8,9.12912912912913,-0.3229456675059977,68,88.21327519422114
8,9.13913913913914,-0.2445444068126753,68,88.21327519422114
8,9.14914914914915,-0.162148787252914,68,88.21327519422114
8,9.15915915915916,-0.0680004760315229,68,88.21327519422114
8,9.16916916916917,0.0141126112898947,68,88.21327519422114
8,9.17917917917918,0.1118476189834724,68,88.21327519422114
8,9.18918918918919,0.194457535163932,68,88.21327519422114
8,9.1991991991992,0.2899159541344522,68,88.21327519422114
8,9.20920920920921,0.3667465262307997,68,88.21327519422114
8,9.21921921921922,0.455664734789578,68,88.21327519422114
8,9.22922922922923,0.5086831608534251,68,88.21327519422114
8,9.23923923923924,0.5798172463485499,68,88.21327519422114
8,9.24924924924925,0.6325697916837071,68,88.21327519422114
8,9.25925925925926,0.6835255023945391,68,88.21327519422114
8,9.26926926926927,0.73048169646813,68,88.21327519422114
8,9.27927927927928,0.7599013201617865,68,88.21327519422114
8,9.28928928928929,0.7673276740761857,68,88.21327519422114
8,9.2992992992993,0.7759592492635798,68,88.21327519422114
8,9.30930930930931,0.7770665131891277,68,88.21327519422114
8,9.31931931931932,0.764705449382543,68,88.21327519422114
8,9.32932932932933,0.7549846765368524,68,88.21327519422114
8,9.33933933933934,0.7338829049411658,68,88.21327519422114
8,9.34934934934935,0.6961382576336105,68,88.21327519422114
8,9.35935935935936,0.6679754685873912,68,88.21327519422114
8,9.36936936936937,0.6268577074331885,68,88.21327519422114
8,9.37937937937938,0.5794508768888819,68,88.21327519422114
8,9.38938938938939,0.5224185933176138,68,88.21327519422114
8,9.3993993993994,0.485066661343446,68,88.21327519422114
8,9.40940940940941,0.4301016148109754,68,88.21327519422114
8,9.41941941941942,0.370240089304033,68,88.21327519422114
8,9.42942942942943,0.3280246058671904,68,88.21327519422114
8,9.43943943943944,0.2800158044841604,68,88.21327519422114
8,9.44944944944945,0.2395079025983117,68,88.21327519422114
8,9.45945945945946,0.1927358723143779,68,88.21327519422114
8,9.46946946946947,0.1593888387516064,68,88.21327519422114
8,9.47947947947948,0.1242906020820382,68,88.21327519422114
8,9.48948948948949,0.0932003974393858,68,88.21327519422114
8,9.4994994994995,0.075225338199835,68,88.21327519422114
8,9.50950950950951,0.0494791459084828,68,88.21327519422114
8,9.51951951951952,0.0245774766795859,68,88.21327519422114
8,9.52952952952953,0.0211674743582247,68,88.21327519422114
8,9.53953953953954,0.005729090482793,68,88.21327519422114
8,9.54954954954955,-0.0041701086659678,68,88.21327519422114
8,9.55955955955956,0.0025087096958172,68,88.21327519422114
8,9.56956956956957,0.0077988815422116,68,88.21327519422114
8,9.57957957957958,0.005274085835917,68,88.21327519422114
8,9.58958958958959,0.0002116648653874,68,88.21327519422114
8,9.5995995995996,-0.001414974204877,68,88.21327519422114
8,9.60960960960961,-0.0078690403657316,68,88.21327519422114
8,9.61961961961962,0.0139724106756946,68,88.21327519422114
8,9.62962962962963,-0.0085295301628905,68,88.21327519422114
8,9.63963963963964,-0.0239218504637054,68,88.21327519422114
8,9.64964964964965,-0.0414228343485777,68,88.21327519422114
8,9.65965965965966,-0.0608930499334604,68,88.21327519422114
8,9.66966966966967,-0.0742704620794088,68,88.21327519422114
8,9.67967967967968,-0.1028244166503817,68,88.21327519422114
8,9.68968968968969,-0.1245709009200935,68,88.21327519422114
8,9.6996996996997,-0.1668366699459785,68,88.21327519422114
8,9.70970970970971,-0.2071123703674087,68,88.21327519422114
8,9.71971971971972,-0.244226927593966,68,88.21327519422114
8,9.72972972972973,-0.2992280809686903,68,88.21327519422114
8,9.73973973973974,-0.3371029961876138,68,88.21327519422114
8,9.74974974974975,-0.4003129822862147,68,88.21327519422114
8,9.75975975975976,-0.4484682332713419,68,88.21327519422114
8,9.76976976976977,-0.4910967903403772,68,88.21327519422114
8,9.77977977977978,-0.5368407689074006,68,88.21327519422114
8,9.78978978978979,-0.5956361748511256,68,88.21327519422114
8,9.7997997997998,-0.6282821611542332,68,88.21327519422114
8,9.80980980980981,-0.6841369074813072,68,88.21327519422114
8,9.81981981981982,-0.708904674032395,68,88.21327519422114
8,9.82982982982983,-0.7389966686429353,68,88.21327519422114
8,9.83983983983984,-0.7632007274423681,68,88.21327519422114
8,9.84984984984985,-0.7788932895258736,68,88.21327519422114
8,9.85985985985986,-0.7895699461760387,68,88.21327519422114
8,9.86986986986987,-0.7747980183387533,68,88.21327519422114
8,9.87987987987988,-0.7681770682198351,68,88.21327519422114
8,9.88988988988989,-0.7450813304112319,68,88.21327519422114
8,9.8998998998999,-0.7108758009778159,68,88.21327519422114
8,9.90990990990991,-0.66734760110988,68,88.21327519422114
8,9.91991991991992,-0.6285528934681429,68,88.21327519422114
8,9.92992992992993,-0.5586290224073408,68,88.21327519422114
8,9.93993993993994,-0.502026657944072,68,88.21327519422114
8,9.94994994994995,-0.4214009703412872,68,88.21327519422114
8,9.95995995995996,-0.3454965598219479,68,88.21327519422114
8,9.96996996996997,-0.2675132302569286,68,88.21327519422114
8,9.97997997997998,-0.179036673235702,68,88.21327519422114
8,9.98998998998999,-0.0949234513363512,68,88.21327519422114
8,10.0,0.0076018400903273,68,88.21327519422114
