Subject_ID,Time,PPG,HR,HRV
11,0.0,0.0058488304209697,79,40.73856427019382
11,0.01001001001001,0.0798680195246648,79,40.73856427019382
11,0.02002002002002,0.1835413491466466,79,40.73856427019382
11,0.03003003003003,0.2677306724266596,79,40.73856427019382
11,0.04004004004004,0.3502603496680866,79,40.73856427019382
11,0.05005005005005,0.4251535345939722,79,40.73856427019382
11,0.06006006006006,0.5117627904631653,79,40.73856427019382
11,0.07007007007007,0.555678654783682,79,40.73856427019382
11,0.08008008008008,0.6217851224663716,79,40.73856427019382
11,0.09009009009009,0.6631967061248871,79,40.73856427019382
11,0.1001001001001,0.7131296049805027,79,40.73856427019382
11,0.1101101101101101,0.7441762359545816,79,40.73856427019382
11,0.1201201201201201,0.7559606360331238,79,40.73856427019382
11,0.1301301301301301,0.7781950596107245,79,40.73856427019382
11,0.1401401401401401,0.7772774853512825,79,40.73856427019382
11,0.1501501501501501,0.7718005702307646,79,40.73856427019382
11,0.1601601601601601,0.758058182926898,79,40.73856427019382
11,0.1701701701701701,0.7476630249494863,79,40.73856427019382
11,0.1801801801801801,0.7059203491676864,79,40.73856427019382
11,0.1901901901901901,0.6713242249914007,79,40.73856427019382
11,0.2002002002002001,0.639028424830025,79,40.73856427019382
11,0.2102102102102102,0.5871465196232183,79,40.73856427019382
11,0.2202202202202202,0.5452018107032479,79,40.73856427019382
11,0.2302302302302302,0.4906377750755186,79,40.73856427019382
11,0.2402402402402402,0.4345614807493473,79,40.73856427019382
11,0.2502502502502503,0.3914026399246072,79,40.73856427019382
11,0.2602602602602603,0.3376590887749479,79,40.73856427019382
11,0.2702702702702703,0.2979334871682722,79,40.73856427019382
11,0.2802802802802803,0.2474118288957147,79,40.73856427019382
11,0.2902902902902903,0.2165260878875877,79,40.73856427019382
11,0.3003003003003003,0.1636122673982703,79,40.73856427019382
11,0.3103103103103103,0.1326901730965489,79,40.73856427019382
11,0.3203203203203203,0.1007907718137338,79,40.73856427019382
11,0.3303303303303303,0.0705191595621008,79,40.73856427019382
11,0.3403403403403403,0.0462637101468096,79,40.73856427019382
11,0.3503503503503503,0.0359599373796898,79,40.73856427019382
11,0.3603603603603603,0.0183070651805546,79,40.73856427019382
11,0.3703703703703703,0.0192844383815749,79,40.73856427019382
11,0.3803803803803803,0.0074190006546328,79,40.73856427019382
11,0.3903903903903903,-0.0055841824604629,79,40.73856427019382
11,0.4004004004004003,0.0030850471155203,79,40.73856427019382
11,0.4104104104104104,0.0001284069761721,79,40.73856427019382
11,0.4204204204204204,-0.0002636524742682,79,40.73856427019382
11,0.4304304304304304,-0.0016833263376953,79,40.73856427019382
11,0.4404404404404404,-0.0075642522418744,79,40.73856427019382
11,0.4504504504504504,-0.0033863481493851,79,40.73856427019382
11,0.4604604604604604,-0.0092528315081534,79,40.73856427019382
11,0.4704704704704704,-0.0260552716454709,79,40.73856427019382
11,0.4804804804804805,-0.0273194476365398,79,40.73856427019382
11,0.4904904904904905,-0.0437107612364667,79,40.73856427019382
11,0.5005005005005005,-0.0695042727403645,79,40.73856427019382
11,0.5105105105105106,-0.0912115828141567,79,40.73856427019382
11,0.5205205205205206,-0.1263450051892264,79,40.73856427019382
11,0.5305305305305306,-0.1630433290571535,79,40.73856427019382
11,0.5405405405405406,-0.1940569958425934,79,40.73856427019382
11,0.5505505505505506,-0.2328328575732411,79,40.73856427019382
11,0.5605605605605606,-0.2871869897887458,79,40.73856427019382
11,0.5705705705705706,-0.338509560408246,79,40.73856427019382
11,0.5805805805805806,-0.3741621719836802,79,40.73856427019382
11,0.5905905905905906,-0.4358117216269878,79,40.73856427019382
11,0.6006006006006006,-0.4683411676852159,79,40.73856427019382
11,0.6106106106106106,-0.5322681435591408,79,40.73856427019382
11,0.6206206206206206,-0.5813541317126639,79,40.73856427019382
11,0.6306306306306306,-0.6326605520577271,79,40.73856427019382
11,0.6406406406406406,-0.6599665716457663,79,40.73856427019382
11,0.6506506506506506,-0.7127204909231044,79,40.73856427019382
11,0.6606606606606606,-0.7220456649961364,79,40.73856427019382
11,0.6706706706706707,-0.7596956713187315,79,40.73856427019382
11,0.6806806806806807,-0.7735891010596514,79,40.73856427019382
11,0.6906906906906907,-0.7794565091147263,79,40.73856427019382
11,0.7007007007007007,-0.7771178888694343,79,40.73856427019382
11,0.7107107107107107,-0.7678253388973982,79,40.73856427019382
11,0.7207207207207207,-0.7515704645033062,79,40.73856427019382
11,0.7307307307307307,-0.7239466393008407,79,40.73856427019382
11,0.7407407407407407,-0.6766907767412284,79,40.73856427019382
11,0.7507507507507507,-0.6279547277851717,79,40.73856427019382
11,0.7607607607607607,-0.574627336032792,79,40.73856427019382
11,0.7707707707707707,-0.5197756236764935,79,40.73856427019382
11,0.7807807807807807,-0.4470225972215094,79,40.73856427019382
11,0.7907907907907907,-0.3654028740569124,79,40.73856427019382
11,0.8008008008008007,-0.2915656185714614,79,40.73856427019382
11,0.8108108108108109,-0.2032498906785902,79,40.73856427019382
11,0.8208208208208209,-0.1064699071394703,79,40.73856427019382
11,0.8308308308308309,-0.0184809994115305,79,40.73856427019382
11,0.8408408408408409,0.0667934075953071,79,40.73856427019382
11,0.8508508508508509,0.1563233386162149,79,40.73856427019382
11,0.8608608608608609,0.2443996509129066,79,40.73856427019382
11,0.8708708708708709,0.3320931415400796,79,40.73856427019382
11,0.8808808808808809,0.4050650189951517,79,40.73856427019382
11,0.8908908908908909,0.4762576528323101,79,40.73856427019382
11,0.9009009009009008,0.5481599421062875,79,40.73856427019382
11,0.9109109109109108,0.5971946654704355,79,40.73856427019382
11,0.9209209209209208,0.6567750559562681,79,40.73856427019382
11,0.9309309309309308,0.6897353482553483,79,40.73856427019382
11,0.9409409409409408,0.7314914583607092,79,40.73856427019382
11,0.950950950950951,0.7574057204788783,79,40.73856427019382
11,0.960960960960961,0.7723025640548169,79,40.73856427019382
11,0.970970970970971,0.7792577297097758,79,40.73856427019382
11,0.980980980980981,0.7819401425518487,79,40.73856427019382
11,0.990990990990991,0.7678214362474389,79,40.73856427019382
11,1.001001001001001,0.7490904864148317,79,40.73856427019382
11,1.011011011011011,0.7151739216040808,79,40.73856427019382
11,1.021021021021021,0.6808031474683569,79,40.73856427019382
11,1.031031031031031,0.6506568788133681,79,40.73856427019382
11,1.0410410410410411,0.605384756288442,79,40.73856427019382
11,1.0510510510510511,0.5590156562699696,79,40.73856427019382
11,1.0610610610610611,0.4949792098292733,79,40.73856427019382
11,1.0710710710710711,0.4639337561932404,79,40.73856427019382
11,1.0810810810810811,0.4014706942838054,79,40.73856427019382
11,1.0910910910910911,0.3506848507603164,79,40.73856427019382
11,1.1011011011011012,0.3090182257492724,79,40.73856427019382
11,1.1111111111111112,0.2628556465936437,79,40.73856427019382
11,1.1211211211211212,0.2131735306757493,79,40.73856427019382
11,1.1311311311311312,0.1693092405614491,79,40.73856427019382
11,1.1411411411411412,0.1373268081806562,79,40.73856427019382
11,1.1511511511511512,0.1017388898607011,79,40.73856427019382
11,1.1611611611611612,0.0768034769676277,79,40.73856427019382
11,1.1711711711711712,0.0571814632174278,79,40.73856427019382
11,1.1811811811811812,0.0383880928638583,79,40.73856427019382
11,1.1911911911911912,0.0198878509599015,79,40.73856427019382
11,1.2012012012012012,0.0099330859250591,79,40.73856427019382
11,1.2112112112112112,0.0073732568458147,79,40.73856427019382
11,1.2212212212212212,-0.0020285011844509,79,40.73856427019382
11,1.2312312312312312,-0.0031507807368084,79,40.73856427019382
11,1.2412412412412412,0.0089999929659894,79,40.73856427019382
11,1.2512512512512513,-0.0053759436103088,79,40.73856427019382
11,1.2612612612612613,-0.0026881110152958,79,40.73856427019382
11,1.2712712712712713,0.0056778498962916,79,40.73856427019382
11,1.2812812812812813,-0.0159249654104308,79,40.73856427019382
11,1.2912912912912913,-0.0100925074170931,79,40.73856427019382
11,1.3013013013013013,-0.0090069082330657,79,40.73856427019382
11,1.3113113113113113,-0.0339913423051861,79,40.73856427019382
11,1.3213213213213213,-0.0428456665368033,79,40.73856427019382
11,1.3313313313313313,-0.0597616987425644,79,40.73856427019382
11,1.3413413413413413,-0.0775645377286134,79,40.73856427019382
11,1.351351351351351,-0.1182121812325483,79,40.73856427019382
11,1.361361361361361,-0.1474941739086193,79,40.73856427019382
11,1.371371371371371,-0.1876047933691216,79,40.73856427019382
11,1.3813813813813811,-0.2278949600386621,79,40.73856427019382
11,1.3913913913913911,-0.2698470360917678,79,40.73856427019382
11,1.4014014014014011,-0.3121687877365717,79,40.73856427019382
11,1.4114114114114114,-0.3710087231961203,79,40.73856427019382
11,1.4214214214214214,-0.4153766736257759,79,40.73856427019382
11,1.4314314314314314,-0.475152472038845,79,40.73856427019382
11,1.4414414414414414,-0.5170501282069445,79,40.73856427019382
11,1.4514514514514514,-0.5620826131209234,79,40.73856427019382
11,1.4614614614614614,-0.611591611237738,79,40.73856427019382
11,1.4714714714714714,-0.6563887373246181,79,40.73856427019382
11,1.4814814814814814,-0.6979539728591964,79,40.73856427019382
11,1.4914914914914914,-0.7278282150353471,79,40.73856427019382
11,1.5015015015015014,-0.7444407808165293,79,40.73856427019382
11,1.5115115115115114,-0.766302929392918,79,40.73856427019382
11,1.5215215215215214,-0.7815510384962133,79,40.73856427019382
11,1.5315315315315314,-0.7768294554783434,79,40.73856427019382
11,1.5415415415415414,-0.7755550943205423,79,40.73856427019382
11,1.5515515515515514,-0.7598987941442972,79,40.73856427019382
11,1.5615615615615617,-0.7295769396998625,79,40.73856427019382
11,1.5715715715715717,-0.7015219778680523,79,40.73856427019382
11,1.5815815815815817,-0.6539611820705877,79,40.73856427019382
11,1.5915915915915917,-0.5881908756917215,79,40.73856427019382
11,1.6016016016016017,-0.5278183052444856,79,40.73856427019382
11,1.6116116116116117,-0.4689274355820525,79,40.73856427019382
11,1.6216216216216215,-0.3887142514130532,79,40.73856427019382
11,1.6316316316316315,-0.3057446307394392,79,40.73856427019382
11,1.6416416416416415,-0.2242431900146186,79,40.73856427019382
11,1.6516516516516515,-0.1358648438046349,79,40.73856427019382
11,1.6616616616616615,-0.0390258521775875,79,40.73856427019382
11,1.6716716716716715,0.0381155277704762,79,40.73856427019382
11,1.6816816816816818,0.132979697824289,79,40.73856427019382
11,1.6916916916916918,0.2272798073933026,79,40.73856427019382
11,1.7017017017017018,0.3057894645376531,79,40.73856427019382
11,1.7117117117117118,0.3823360543541295,79,40.73856427019382
11,1.7217217217217218,0.467225597512893,79,40.73856427019382
11,1.7317317317317318,0.5260762003399242,79,40.73856427019382
11,1.7417417417417418,0.5986726607203423,79,40.73856427019382
11,1.7517517517517518,0.6464338446029753,79,40.73856427019382
11,1.7617617617617618,0.6845419960228403,79,40.73856427019382
11,1.7717717717717718,0.7279389230029328,79,40.73856427019382
11,1.7817817817817818,0.7562073369186673,79,40.73856427019382
11,1.7917917917917918,0.7685084873410226,79,40.73856427019382
11,1.8018018018018016,0.781581141053327,79,40.73856427019382
11,1.811811811811812,0.7793435261902338,79,40.73856427019382
11,1.8218218218218216,0.7758687120276073,79,40.73856427019382
11,1.831831831831832,0.7526660933655133,79,40.73856427019382
11,1.8418418418418416,0.7178216859128441,79,40.73856427019382
11,1.851851851851852,0.696815597710789,79,40.73856427019382
11,1.8618618618618616,0.6569294493555997,79,40.73856427019382
11,1.871871871871872,0.6182730548535831,79,40.73856427019382
11,1.8818818818818817,0.5628662304088722,79,40.73856427019382
11,1.891891891891892,0.5235649016300239,79,40.73856427019382
11,1.901901901901902,0.4620154176351168,79,40.73856427019382
11,1.911911911911912,0.4191447601912265,79,40.73856427019382
11,1.921921921921922,0.3664714194821274,79,40.73856427019382
11,1.931931931931932,0.3171473276719985,79,40.73856427019382
11,1.941941941941942,0.2753405097217482,79,40.73856427019382
11,1.951951951951952,0.2317720499057138,79,40.73856427019382
11,1.961961961961962,0.1907357301286027,79,40.73856427019382
11,1.971971971971972,0.1506560466264522,79,40.73856427019382
11,1.981981981981982,0.115599423328779,79,40.73856427019382
11,1.991991991991992,0.0914717947142381,79,40.73856427019382
11,2.002002002002002,0.0595683208768172,79,40.73856427019382
11,2.012012012012012,0.0468284882074269,79,40.73856427019382
11,2.022022022022022,0.0282185539959522,79,40.73856427019382
11,2.032032032032032,0.0071994680788766,79,40.73856427019382
11,2.042042042042042,0.006492996707605,79,40.73856427019382
11,2.052052052052052,-0.006873547356258,79,40.73856427019382
11,2.062062062062062,0.003239020250599,79,40.73856427019382
11,2.072072072072072,0.0026350741948959,79,40.73856427019382
11,2.0820820820820822,0.0046564467960176,79,40.73856427019382
11,2.092092092092092,-0.0058055958694591,79,40.73856427019382
11,2.1021021021021022,-0.0022523892123941,79,40.73856427019382
11,2.112112112112112,0.0018927843665824,79,40.73856427019382
11,2.1221221221221223,-0.0155454828673102,79,40.73856427019382
11,2.1321321321321323,-0.0116923650044935,79,40.73856427019382
11,2.1421421421421423,-0.0257353394523067,79,40.73856427019382
11,2.1521521521521523,-0.0419577751795197,79,40.73856427019382
11,2.1621621621621623,-0.0623296396778946,79,40.73856427019382
11,2.1721721721721723,-0.0852836882471819,79,40.73856427019382
11,2.1821821821821823,-0.1042352927779869,79,40.73856427019382
11,2.1921921921921923,-0.140274398757851,79,40.73856427019382
11,2.2022022022022023,-0.1697262474089326,79,40.73856427019382
11,2.2122122122122123,-0.2210364607889726,79,40.73856427019382
11,2.2222222222222223,-0.2596720157457405,79,40.73856427019382
11,2.2322322322322323,-0.2961011335940817,79,40.73856427019382
11,2.2422422422422423,-0.3517894323051362,79,40.73856427019382
11,2.2522522522522523,-0.4005843179066262,79,40.73856427019382
11,2.2622622622622623,-0.4474076646791113,79,40.73856427019382
11,2.2722722722722724,-0.5110847476004355,79,40.73856427019382
11,2.2822822822822824,-0.5549341644394176,79,40.73856427019382
11,2.2922922922922924,-0.5978576740166985,79,40.73856427019382
11,2.3023023023023024,-0.6381042848083797,79,40.73856427019382
11,2.3123123123123124,-0.6870622797977003,79,40.73856427019382
11,2.3223223223223224,-0.7113559873715356,79,40.73856427019382
11,2.3323323323323324,-0.7439377995417782,79,40.73856427019382
11,2.3423423423423424,-0.7572759851774032,79,40.73856427019382
11,2.3523523523523524,-0.7773543863837205,79,40.73856427019382
11,2.3623623623623624,-0.7695082177362945,79,40.73856427019382
11,2.3723723723723724,-0.7771028854830341,79,40.73856427019382
11,2.3823823823823824,-0.7568681248570641,79,40.73856427019382
11,2.3923923923923924,-0.7378049479265819,79,40.73856427019382
11,2.4024024024024024,-0.694534204131934,79,40.73856427019382
11,2.4124124124124124,-0.6598242178126856,79,40.73856427019382
11,2.4224224224224224,-0.6153442345676858,79,40.73856427019382
11,2.4324324324324325,-0.5452822265115054,79,40.73856427019382
11,2.4424424424424425,-0.4920651943539213,79,40.73856427019382
11,2.4524524524524525,-0.4038204316511488,79,40.73856427019382
11,2.4624624624624625,-0.3290031524550925,79,40.73856427019382
11,2.4724724724724725,-0.2466006461536706,79,40.73856427019382
11,2.4824824824824825,-0.1686660809011902,79,40.73856427019382
11,2.4924924924924925,-0.0640228848642513,79,40.73856427019382
11,2.5025025025025025,0.0184891851921262,79,40.73856427019382
11,2.5125125125125125,0.1110329643066384,79,40.73856427019382
11,2.5225225225225225,0.1988651428149833,79,40.73856427019382
11,2.5325325325325325,0.2837780833890663,79,40.73856427019382
11,2.5425425425425425,0.3673726267609787,79,40.73856427019382
11,2.5525525525525525,0.4397946109126682,79,40.73856427019382
11,2.5625625625625625,0.5154609228128698,79,40.73856427019382
11,2.5725725725725725,0.5762291432641687,79,40.73856427019382
11,2.5825825825825826,0.6369130190190591,79,40.73856427019382
11,2.592592592592593,0.6891858247577057,79,40.73856427019382
11,2.6026026026026026,0.7126776498387599,79,40.73856427019382
11,2.612612612612613,0.7510684982719623,79,40.73856427019382
11,2.6226226226226226,0.7732204130771945,79,40.73856427019382
11,2.6326326326326326,0.775234674455453,79,40.73856427019382
11,2.6426426426426426,0.7775231890138324,79,40.73856427019382
11,2.6526526526526526,0.7799590420307428,79,40.73856427019382
11,2.6626626626626626,0.7451111573684097,79,40.73856427019382
11,2.6726726726726726,0.7394997327334389,79,40.73856427019382
11,2.6826826826826826,0.7009400840940623,79,40.73856427019382
11,2.6926926926926926,0.6712423200737668,79,40.73856427019382
11,2.702702702702702,0.6180958639698797,79,40.73856427019382
11,2.7127127127127126,0.5791715430299168,79,40.73856427019382
11,2.722722722722722,0.5352627534467554,79,40.73856427019382
11,2.7327327327327327,0.4848356356522982,79,40.73856427019382
11,2.7427427427427427,0.4304062430153832,79,40.73856427019382
11,2.7527527527527527,0.3813535114725014,79,40.73856427019382
11,2.7627627627627627,0.3353659505121161,79,40.73856427019382
11,2.7727727727727727,0.2912408914398246,79,40.73856427019382
11,2.7827827827827827,0.2327647060576686,79,40.73856427019382
11,2.7927927927927927,0.1916166462228474,79,40.73856427019382
11,2.8028028028028027,0.1644075353009979,79,40.73856427019382
11,2.8128128128128127,0.1252374990073818,79,40.73856427019382
11,2.8228228228228227,0.0962746843985818,79,40.73856427019382
11,2.8328328328328327,0.064616036636257,79,40.73856427019382
11,2.8428428428428427,0.0579103257773481,79,40.73856427019382
11,2.8528528528528527,0.0243024116853837,79,40.73856427019382
11,2.8628628628628627,0.014932501203843,79,40.73856427019382
11,2.8728728728728727,0.0031975114135778,79,40.73856427019382
11,2.8828828828828827,0.000736416117721,79,40.73856427019382
11,2.8928928928928928,0.001615398209435,79,40.73856427019382
11,2.9029029029029028,-0.0047539757988325,79,40.73856427019382
11,2.9129129129129128,-0.0108493468070256,79,40.73856427019382
11,2.9229229229229228,-0.0076916895591791,79,40.73856427019382
11,2.932932932932933,-0.0041502509749747,79,40.73856427019382
11,2.942942942942943,-0.0015328241479057,79,40.73856427019382
11,2.952952952952953,-0.0056733579786284,79,40.73856427019382
11,2.962962962962963,-0.0075202800935394,79,40.73856427019382
11,2.972972972972973,-0.0237510539606938,79,40.73856427019382
11,2.982982982982983,-0.0278006042717741,79,40.73856427019382
11,2.992992992992993,-0.0513069637723571,79,40.73856427019382
11,3.003003003003003,-0.0777571835790105,79,40.73856427019382
11,3.013013013013013,-0.0931334936047091,79,40.73856427019382
11,3.023023023023023,-0.137998473061164,79,40.73856427019382
11,3.033033033033033,-0.1666791483118813,79,40.73856427019382
11,3.043043043043043,-0.2018182857105543,79,40.73856427019382
11,3.053053053053053,-0.2433773778268373,79,40.73856427019382
11,3.063063063063063,-0.2934227677158695,79,40.73856427019382
11,3.073073073073073,-0.3361088035634018,79,40.73856427019382
11,3.083083083083083,-0.3976269571101016,79,40.73856427019382
11,3.093093093093093,-0.4456503746384751,79,40.73856427019382
11,3.103103103103103,-0.4909252267354348,79,40.73856427019382
11,3.113113113113113,-0.547801884685894,79,40.73856427019382
11,3.123123123123123,-0.5968007428321568,79,40.73856427019382
11,3.133133133133133,-0.6344211761244526,79,40.73856427019382
11,3.143143143143143,-0.6731856674773072,79,40.73856427019382
11,3.153153153153153,-0.710794839418924,79,40.73856427019382
11,3.163163163163163,-0.7392014247034934,79,40.73856427019382
11,3.173173173173173,-0.7649495778888075,79,40.73856427019382
11,3.183183183183183,-0.7720171998047798,79,40.73856427019382
11,3.193193193193193,-0.7697031999617399,79,40.73856427019382
11,3.203203203203203,-0.776525289957554,79,40.73856427019382
11,3.2132132132132134,-0.7659027399830501,79,40.73856427019382
11,3.2232232232232234,-0.7406496207548647,79,40.73856427019382
11,3.2332332332332334,-0.7090991736824569,79,40.73856427019382
11,3.2432432432432434,-0.6711442198832482,79,40.73856427019382
11,3.253253253253253,-0.6234128342900218,79,40.73856427019382
11,3.2632632632632634,-0.5678886829202917,79,40.73856427019382
11,3.273273273273273,-0.4914174184638671,79,40.73856427019382
11,3.2832832832832834,-0.4271807332126956,79,40.73856427019382
11,3.293293293293293,-0.3479808484528999,79,40.73856427019382
11,3.3033033033033035,-0.2801316256240428,79,40.73856427019382
11,3.313313313313313,-0.1756709746465584,79,40.73856427019382
11,3.3233233233233235,-0.0930567797056746,79,40.73856427019382
11,3.333333333333333,-0.0039368262108327,79,40.73856427019382
11,3.3433433433433435,0.0881249066696263,79,40.73856427019382
11,3.353353353353353,0.1831480588863375,79,40.73856427019382
11,3.3633633633633635,0.2632578945460485,79,40.73856427019382
11,3.373373373373373,0.3524848077727359,79,40.73856427019382
11,3.3833833833833835,0.4256602943485493,79,40.73856427019382
11,3.393393393393393,0.5004692610511483,79,40.73856427019382
11,3.4034034034034035,0.5695330562447358,79,40.73856427019382
11,3.413413413413413,0.6181080592111481,79,40.73856427019382
11,3.4234234234234235,0.6751441357498771,79,40.73856427019382
11,3.433433433433433,0.7009104183706693,79,40.73856427019382
11,3.443443443443444,0.740028602483881,79,40.73856427019382
11,3.4534534534534536,0.7616261539837901,79,40.73856427019382
11,3.463463463463464,0.7727446520663622,79,40.73856427019382
11,3.4734734734734736,0.7698579340030411,79,40.73856427019382
11,3.483483483483484,0.7704623013773726,79,40.73856427019382
11,3.4934934934934936,0.7632180417281347,79,40.73856427019382
11,3.503503503503504,0.7338281737108306,79,40.73856427019382
11,3.5135135135135136,0.7157170465958077,79,40.73856427019382
11,3.523523523523524,0.6642337584590782,79,40.73856427019382
11,3.5335335335335336,0.6330416687475612,79,40.73856427019382
11,3.543543543543544,0.5954496536040321,79,40.73856427019382
11,3.5535535535535536,0.5482327111163819,79,40.73856427019382
11,3.563563563563564,0.488475748198236,79,40.73856427019382
11,3.5735735735735736,0.4494034260625804,79,40.73856427019382
11,3.583583583583584,0.3852229038012318,79,40.73856427019382
11,3.5935935935935936,0.3426601015080457,79,40.73856427019382
11,3.603603603603604,0.2915031325734236,79,40.73856427019382
11,3.6136136136136137,0.2479230819526524,79,40.73856427019382
11,3.623623623623624,0.2088524389922958,79,40.73856427019382
11,3.6336336336336337,0.158556814111473,79,40.73856427019382
11,3.643643643643644,0.1350271827202837,79,40.73856427019382
11,3.6536536536536537,0.0974590100297806,79,40.73856427019382
11,3.663663663663664,0.0774228622467972,79,40.73856427019382
11,3.6736736736736737,0.0519785499616045,79,40.73856427019382
11,3.683683683683684,0.033252701284696,79,40.73856427019382
11,3.6936936936936937,0.0216149080303861,79,40.73856427019382
11,3.703703703703704,0.0194852445233696,79,40.73856427019382
11,3.7137137137137137,-0.0103897586913105,79,40.73856427019382
11,3.723723723723724,0.0067021049880813,79,40.73856427019382
11,3.7337337337337337,0.0082980068966228,79,40.73856427019382
11,3.743743743743744,-0.0019834078562565,79,40.73856427019382
11,3.7537537537537538,0.0030790361368403,79,40.73856427019382
11,3.763763763763764,0.0013997834047179,79,40.73856427019382
11,3.7737737737737738,-0.0017901933115504,79,40.73856427019382
11,3.783783783783784,0.005418975221521,79,40.73856427019382
11,3.793793793793794,-0.0094829816278634,79,40.73856427019382
11,3.803803803803804,-0.014800444848186,79,40.73856427019382
11,3.813813813813814,-0.0333354228069356,79,40.73856427019382
11,3.823823823823824,-0.0565624421628626,79,40.73856427019382
11,3.833833833833834,-0.0655164287192773,79,40.73856427019382
11,3.843843843843844,-0.0885503867577313,79,40.73856427019382
11,3.853853853853854,-0.126108903205671,79,40.73856427019382
11,3.863863863863864,-0.1570333014882333,79,40.73856427019382
11,3.873873873873874,-0.1951623662452327,79,40.73856427019382
11,3.883883883883884,-0.2345184107407401,79,40.73856427019382
11,3.893893893893894,-0.2874673778756501,79,40.73856427019382
11,3.903903903903904,-0.3408574105805972,79,40.73856427019382
11,3.913913913913914,-0.3858794018356569,79,40.73856427019382
11,3.923923923923924,-0.4291733065179354,79,40.73856427019382
11,3.933933933933934,-0.4780212725724037,79,40.73856427019382
11,3.943943943943944,-0.5269358428055344,79,40.73856427019382
11,3.953953953953954,-0.5739842760322583,79,40.73856427019382
11,3.963963963963964,-0.6288085715813935,79,40.73856427019382
11,3.973973973973974,-0.6756740062688921,79,40.73856427019382
11,3.983983983983984,-0.6939707165818034,79,40.73856427019382
11,3.993993993993994,-0.7266488507718671,79,40.73856427019382
11,4.004004004004004,-0.7505342979278433,79,40.73856427019382
11,4.014014014014014,-0.7728796177936257,79,40.73856427019382
11,4.024024024024024,-0.7713565571974141,79,40.73856427019382
11,4.034034034034034,-0.7662298492925985,79,40.73856427019382
11,4.044044044044044,-0.7676118321256397,79,40.73856427019382
11,4.054054054054054,-0.7471416313560408,79,40.73856427019382
11,4.064064064064064,-0.7260967057304283,79,40.73856427019382
11,4.074074074074074,-0.6851053777344241,79,40.73856427019382
11,4.084084084084084,-0.6308731882194538,79,40.73856427019382
11,4.094094094094094,-0.5766902204895615,79,40.73856427019382
11,4.104104104104104,-0.5144665387400743,79,40.73856427019382
11,4.114114114114114,-0.4497680731373006,79,40.73856427019382
11,4.124124124124124,-0.366019800075947,79,40.73856427019382
11,4.134134134134134,-0.2882129286211422,79,40.73856427019382
11,4.144144144144144,-0.1989157587662955,79,40.73856427019382
11,4.1541541541541545,-0.108248948969221,79,40.73856427019382
11,4.1641641641641645,-0.0192312649417663,79,40.73856427019382
11,4.174174174174175,0.0662420834125255,79,40.73856427019382
11,4.1841841841841845,0.1526401022556131,79,40.73856427019382
11,4.1941941941941945,0.2378449928028384,79,40.73856427019382
11,4.2042042042042045,0.3308491282076389,79,40.73856427019382
11,4.214214214214215,0.4041100169719939,79,40.73856427019382
11,4.2242242242242245,0.4878430430676498,79,40.73856427019382
11,4.2342342342342345,0.5417905460773471,79,40.73856427019382
11,4.2442442442442445,0.6014425331627938,79,40.73856427019382
11,4.254254254254255,0.6550919997360022,79,40.73856427019382
11,4.2642642642642645,0.7109999887515761,79,40.73856427019382
11,4.2742742742742745,0.7306061125985615,79,40.73856427019382
11,4.2842842842842845,0.7557055088777161,79,40.73856427019382
11,4.294294294294295,0.771505695563687,79,40.73856427019382
11,4.3043043043043046,0.7746960219693978,79,40.73856427019382
11,4.314314314314315,0.7762481090795275,79,40.73856427019382
11,4.324324324324325,0.7678422979478113,79,40.73856427019382
11,4.334334334334335,0.741200794274626,79,40.73856427019382
11,4.344344344344345,0.7057618615855312,79,40.73856427019382
11,4.354354354354355,0.6753647075285237,79,40.73856427019382
11,4.364364364364365,0.644551579698189,79,40.73856427019382
11,4.374374374374375,0.6099554034516184,79,40.73856427019382
11,4.384384384384385,0.5506701281687563,79,40.73856427019382
11,4.394394394394395,0.5006812688727706,79,40.73856427019382
11,4.404404404404405,0.4581749539143072,79,40.73856427019382
11,4.414414414414415,0.409529466678239,79,40.73856427019382
11,4.424424424424425,0.3608974788597613,79,40.73856427019382
11,4.434434434434435,0.3043112386513084,79,40.73856427019382
11,4.444444444444445,0.258105403146244,79,40.73856427019382
11,4.454454454454455,0.213752120397005,79,40.73856427019382
11,4.464464464464465,0.1671193785673273,79,40.73856427019382
11,4.474474474474475,0.1350151477809539,79,40.73856427019382
11,4.484484484484485,0.1018232879903657,79,40.73856427019382
11,4.494494494494495,0.0839532040408484,79,40.73856427019382
11,4.504504504504505,0.0622736772047088,79,40.73856427019382
11,4.514514514514515,0.0384752091806222,79,40.73856427019382
11,4.524524524524525,0.0195356437104774,79,40.73856427019382
11,4.534534534534535,0.0074737910928313,79,40.73856427019382
11,4.544544544544545,0.0014659457899982,79,40.73856427019382
11,4.554554554554555,0.0033240713687692,79,40.73856427019382
11,4.564564564564565,0.0034543038831195,79,40.73856427019382
11,4.574574574574575,0.0003665140658486,79,40.73856427019382
11,4.584584584584585,-0.0021744793170774,79,40.73856427019382
11,4.594594594594595,-0.0058188869313302,79,40.73856427019382
11,4.604604604604605,0.0050093048023221,79,40.73856427019382
11,4.614614614614615,-0.0177673847516267,79,40.73856427019382
11,4.624624624624625,-0.0125462402385222,79,40.73856427019382
11,4.634634634634635,-0.0153161067425703,79,40.73856427019382
11,4.644644644644645,-0.03192433191082,79,40.73856427019382
11,4.654654654654655,-0.0453725628485909,79,40.73856427019382
11,4.664664664664665,-0.064002380634362,79,40.73856427019382
11,4.674674674674675,-0.0900438078174487,79,40.73856427019382
11,4.684684684684685,-0.1106831405571702,79,40.73856427019382
11,4.694694694694695,-0.1484505652884774,79,40.73856427019382
11,4.704704704704705,-0.1812062974697788,79,40.73856427019382
11,4.714714714714715,-0.2298641211532313,79,40.73856427019382
11,4.724724724724725,-0.2715411017033595,79,40.73856427019382
11,4.734734734734735,-0.3151834995238347,79,40.73856427019382
11,4.744744744744745,-0.3644171696264069,79,40.73856427019382
11,4.754754754754755,-0.4148758762610304,79,40.73856427019382
11,4.764764764764765,-0.4762911985001248,79,40.73856427019382
11,4.774774774774775,-0.512799124067433,79,40.73856427019382
11,4.784784784784785,-0.5621421856484333,79,40.73856427019382
11,4.794794794794795,-0.611829478994034,79,40.73856427019382
11,4.804804804804805,-0.6592168431367449,79,40.73856427019382
11,4.814814814814815,-0.6885322748718847,79,40.73856427019382
11,4.824824824824825,-0.7284079087543613,79,40.73856427019382
11,4.834834834834835,-0.7488133781361206,79,40.73856427019382
11,4.844844844844845,-0.7699642835625806,79,40.73856427019382
11,4.854854854854855,-0.7715223283023196,79,40.73856427019382
11,4.864864864864865,-0.7817642590868726,79,40.73856427019382
11,4.874874874874875,-0.7757489397862368,79,40.73856427019382
11,4.884884884884885,-0.7538131928281409,79,40.73856427019382
11,4.894894894894895,-0.7349071844951671,79,40.73856427019382
11,4.904904904904905,-0.7022066683003552,79,40.73856427019382
11,4.914914914914915,-0.640621291184993,79,40.73856427019382
11,4.924924924924925,-0.5994863971633645,79,40.73856427019382
11,4.934934934934935,-0.5297127153099439,79,40.73856427019382
11,4.944944944944945,-0.4627972280118729,79,40.73856427019382
11,4.954954954954955,-0.3875146486120785,79,40.73856427019382
11,4.964964964964965,-0.3126312981745697,79,40.73856427019382
11,4.974974974974975,-0.233262199951428,79,40.73856427019382
11,4.984984984984985,-0.1404076848281239,79,40.73856427019382
11,4.994994994994995,-0.0481074307889359,79,40.73856427019382
11,5.005005005005005,0.0320037771059189,79,40.73856427019382
11,5.015015015015015,0.1368416525598184,79,40.73856427019382
11,5.025025025025025,0.2270296538903165,79,40.73856427019382
11,5.035035035035035,0.3078139991597625,79,40.73856427019382
11,5.045045045045045,0.3891725630347216,79,40.73856427019382
11,5.055055055055055,0.4648775768956271,79,40.73856427019382
11,5.065065065065065,0.5237184313996837,79,40.73856427019382
11,5.075075075075075,0.588388777161089,79,40.73856427019382
11,5.085085085085085,0.6478072682087491,79,40.73856427019382
11,5.095095095095095,0.6866047417157883,79,40.73856427019382
11,5.105105105105105,0.7301577079975674,79,40.73856427019382
11,5.115115115115115,0.7532684901405753,79,40.73856427019382
11,5.125125125125125,0.7730847206453627,79,40.73856427019382
11,5.135135135135135,0.773687329894144,79,40.73856427019382
11,5.145145145145145,0.780530869437593,79,40.73856427019382
11,5.155155155155155,0.7684266692868371,79,40.73856427019382
11,5.165165165165165,0.7543312253649551,79,40.73856427019382
11,5.175175175175175,0.7209659878634902,79,40.73856427019382
11,5.185185185185185,0.6996766527252678,79,40.73856427019382
11,5.195195195195195,0.6583091018550422,79,40.73856427019382
11,5.205205205205205,0.6128861967506497,79,40.73856427019382
11,5.215215215215215,0.5642997979288092,79,40.73856427019382
11,5.225225225225225,0.522520586086245,79,40.73856427019382
11,5.235235235235235,0.4717762241294357,79,40.73856427019382
11,5.245245245245245,0.4131307296194783,79,40.73856427019382
11,5.255255255255255,0.367502853717113,79,40.73856427019382
11,5.265265265265265,0.32024868062447,79,40.73856427019382
11,5.275275275275275,0.2710855098857664,79,40.73856427019382
11,5.285285285285285,0.2160485459262917,79,40.73856427019382
11,5.295295295295295,0.1832439036075961,79,40.73856427019382
11,5.305305305305305,0.1532494908684992,79,40.73856427019382
11,5.315315315315315,0.1174926662025626,79,40.73856427019382
11,5.325325325325325,0.0861548961400887,79,40.73856427019382
11,5.335335335335335,0.0608330355778817,79,40.73856427019382
11,5.345345345345345,0.0353327691841178,79,40.73856427019382
11,5.355355355355355,0.0280957936420681,79,40.73856427019382
11,5.365365365365365,0.0144712891368385,79,40.73856427019382
11,5.375375375375375,0.0033635989661627,79,40.73856427019382
11,5.385385385385385,-0.0042142830744068,79,40.73856427019382
11,5.395395395395395,0.002578764261797,79,40.73856427019382
11,5.405405405405405,-0.004963126021506,79,40.73856427019382
11,5.415415415415415,-0.002875330850406,79,40.73856427019382
11,5.425425425425425,0.0010626017334108,79,40.73856427019382
11,5.435435435435435,-0.0022204097535979,79,40.73856427019382
11,5.445445445445445,-0.0052834717005617,79,40.73856427019382
11,5.455455455455455,-0.0098771197632448,79,40.73856427019382
11,5.465465465465465,-0.012700559690471,79,40.73856427019382
11,5.475475475475475,-0.0265759641473621,79,40.73856427019382
11,5.485485485485485,-0.0479850485673764,79,40.73856427019382
11,5.495495495495495,-0.0574238145464177,79,40.73856427019382
11,5.505505505505505,-0.0730532346132261,79,40.73856427019382
11,5.515515515515515,-0.1132173801571376,79,40.73856427019382
11,5.525525525525525,-0.1339828812210532,79,40.73856427019382
11,5.535535535535535,-0.1727231062138516,79,40.73856427019382
11,5.545545545545545,-0.2188917317073947,79,40.73856427019382
11,5.555555555555555,-0.2598090826873485,79,40.73856427019382
11,5.565565565565565,-0.2965610144995014,79,40.73856427019382
11,5.575575575575575,-0.3568890898374516,79,40.73856427019382
11,5.585585585585585,-0.4110876059595724,79,40.73856427019382
11,5.595595595595595,-0.4672807116192249,79,40.73856427019382
11,5.605605605605605,-0.5034359246371333,79,40.73856427019382
11,5.615615615615615,-0.5534626669323778,79,40.73856427019382
11,5.625625625625625,-0.6012476460318092,79,40.73856427019382
11,5.635635635635635,-0.6417515827617893,79,40.73856427019382
11,5.645645645645645,-0.6811978558597357,79,40.73856427019382
11,5.655655655655655,-0.7187592357547918,79,40.73856427019382
11,5.665665665665665,-0.7489541539932993,79,40.73856427019382
11,5.675675675675675,-0.7664247613816966,79,40.73856427019382
11,5.685685685685685,-0.7776989842170845,79,40.73856427019382
11,5.695695695695696,-0.7765833138712893,79,40.73856427019382
11,5.7057057057057055,-0.7734807475246946,79,40.73856427019382
11,5.715715715715716,-0.762128417254121,79,40.73856427019382
11,5.7257257257257255,-0.7280715901336495,79,40.73856427019382
11,5.735735735735736,-0.7062516061732713,79,40.73856427019382
11,5.7457457457457455,-0.6617614007027477,79,40.73856427019382
11,5.755755755755756,-0.6094109301514588,79,40.73856427019382
11,5.7657657657657655,-0.5567382633174577,79,40.73856427019382
11,5.775775775775776,-0.4784995125895003,79,40.73856427019382
11,5.7857857857857855,-0.4084395052994574,79,40.73856427019382
11,5.795795795795796,-0.3311372034968931,79,40.73856427019382
11,5.8058058058058055,-0.2411225980084639,79,40.73856427019382
11,5.815815815815816,-0.155497033199376,79,40.73856427019382
11,5.8258258258258255,-0.062806684986647,79,40.73856427019382
11,5.835835835835836,0.0218627317001342,79,40.73856427019382
11,5.8458458458458455,0.1207704730198429,79,40.73856427019382
11,5.855855855855856,0.194994583961437,79,40.73856427019382
11,5.865865865865866,0.2922703938929344,79,40.73856427019382
11,5.875875875875876,0.368083600720159,79,40.73856427019382
11,5.885885885885886,0.4469868557865273,79,40.73856427019382
11,5.895895895895896,0.5110535281661766,79,40.73856427019382
11,5.905905905905906,0.5817187043773546,79,40.73856427019382
11,5.915915915915916,0.6332130247669507,79,40.73856427019382
11,5.925925925925926,0.6783493637731425,79,40.73856427019382
11,5.935935935935936,0.7202465058886572,79,40.73856427019382
11,5.945945945945946,0.7484434128912313,79,40.73856427019382
11,5.955955955955956,0.7638461523198112,79,40.73856427019382
11,5.965965965965966,0.7776753715986977,79,40.73856427019382
11,5.975975975975976,0.7770330618098733,79,40.73856427019382
11,5.985985985985986,0.7709946595116517,79,40.73856427019382
11,5.995995995995996,0.7449102736190867,79,40.73856427019382
11,6.006006006006006,0.7340442222573422,79,40.73856427019382
11,6.016016016016016,0.7037506181234543,79,40.73856427019382
11,6.026026026026026,0.6627837277312262,79,40.73856427019382
11,6.036036036036036,0.6416702304118205,79,40.73856427019382
11,6.046046046046046,0.5729374688103527,79,40.73856427019382
11,6.056056056056056,0.5298887905351781,79,40.73856427019382
11,6.066066066066066,0.4819379482816061,79,40.73856427019382
11,6.076076076076076,0.4297171661896326,79,40.73856427019382
11,6.086086086086086,0.3794950510669452,79,40.73856427019382
11,6.096096096096096,0.3304512046913863,79,40.73856427019382
11,6.106106106106106,0.2852399790138933,79,40.73856427019382
11,6.116116116116116,0.2380876017376807,79,40.73856427019382
11,6.126126126126126,0.1980413163261496,79,40.73856427019382
11,6.136136136136136,0.15665255166794,79,40.73856427019382
11,6.146146146146146,0.1213989469335816,79,40.73856427019382
11,6.156156156156156,0.0863861401528385,79,40.73856427019382
11,6.166166166166166,0.0677613111632229,79,40.73856427019382
11,6.176176176176176,0.0375445817188053,79,40.73856427019382
11,6.186186186186186,0.0229509032362999,79,40.73856427019382
11,6.196196196196196,0.0062050350073018,79,40.73856427019382
11,6.206206206206206,0.0038165713184094,79,40.73856427019382
11,6.216216216216216,0.011957783499259,79,40.73856427019382
11,6.226226226226226,-0.0014785123191899,79,40.73856427019382
11,6.236236236236236,-0.0087151989460631,79,40.73856427019382
11,6.246246246246246,-0.0084656587675889,79,40.73856427019382
11,6.256256256256256,0.0009167778719471,79,40.73856427019382
11,6.266266266266266,-0.0010162154382537,79,40.73856427019382
11,6.276276276276276,0.0056788720108449,79,40.73856427019382
11,6.286286286286286,-0.0076126785491109,79,40.73856427019382
11,6.296296296296296,-0.0182132533750881,79,40.73856427019382
11,6.306306306306306,-0.0212382922321909,79,40.73856427019382
11,6.316316316316316,-0.0407331011211368,79,40.73856427019382
11,6.326326326326326,-0.0453563602702609,79,40.73856427019382
11,6.336336336336336,-0.0801496799565005,79,40.73856427019382
11,6.346346346346346,-0.1033226107502036,79,40.73856427019382
11,6.356356356356356,-0.1334715228686052,79,40.73856427019382
11,6.366366366366366,-0.1636253594862368,79,40.73856427019382
11,6.376376376376376,-0.2095455370292075,79,40.73856427019382
11,6.386386386386386,-0.2450427646453125,79,40.73856427019382
11,6.396396396396396,-0.2865922804410951,79,40.73856427019382
11,6.406406406406406,-0.344563723904044,79,40.73856427019382
11,6.416416416416417,-0.4016260303033016,79,40.73856427019382
11,6.426426426426427,-0.4498527857415334,79,40.73856427019382
11,6.436436436436437,-0.4901515494729847,79,40.73856427019382
11,6.446446446446447,-0.5463199649775309,79,40.73856427019382
11,6.456456456456457,-0.5879323922700231,79,40.73856427019382
11,6.466466466466467,-0.6407282526548043,79,40.73856427019382
11,6.476476476476477,-0.6727802256870139,79,40.73856427019382
11,6.486486486486487,-0.7153194583074649,79,40.73856427019382
11,6.496496496496497,-0.741580564077444,79,40.73856427019382
11,6.506506506506507,-0.7670130758446445,79,40.73856427019382
11,6.516516516516517,-0.7823386981609347,79,40.73856427019382
11,6.526526526526527,-0.785663343052717,79,40.73856427019382
11,6.536536536536537,-0.7782870601001352,79,40.73856427019382
11,6.546546546546547,-0.7728735738500265,79,40.73856427019382
11,6.556556556556557,-0.7419435879379062,79,40.73856427019382
11,6.566566566566567,-0.7014784862097465,79,40.73856427019382
11,6.576576576576577,-0.6752842735863606,79,40.73856427019382
11,6.586586586586587,-0.6100955591542598,79,40.73856427019382
11,6.596596596596597,-0.5639394573106792,79,40.73856427019382
11,6.606606606606607,-0.4942781111838993,79,40.73856427019382
11,6.616616616616617,-0.4253306651145035,79,40.73856427019382
11,6.626626626626627,-0.3563368311320919,79,40.73856427019382
11,6.636636636636637,-0.2636615592530393,79,40.73856427019382
11,6.646646646646647,-0.1846234143238506,79,40.73856427019382
11,6.656656656656657,-0.0958895369811098,79,40.73856427019382
11,6.666666666666667,0.0012906602583475,79,40.73856427019382
11,6.676676676676677,0.0912310322866944,79,40.73856427019382
11,6.686686686686687,0.1824790996332081,79,40.73856427019382
11,6.696696696696697,0.2665469821899614,79,40.73856427019382
11,6.706706706706707,0.3546863958093513,79,40.73856427019382
11,6.716716716716717,0.4203459304512159,79,40.73856427019382
11,6.726726726726727,0.4960781837736199,79,40.73856427019382
11,6.736736736736737,0.5670283905655473,79,40.73856427019382
11,6.746746746746747,0.6286610929566342,79,40.73856427019382
11,6.756756756756757,0.6645610249502607,79,40.73856427019382
11,6.766766766766767,0.7096025476604402,79,40.73856427019382
11,6.776776776776777,0.7359870064932323,79,40.73856427019382
11,6.786786786786787,0.7616450095424064,79,40.73856427019382
11,6.796796796796797,0.7768264813295299,79,40.73856427019382
11,6.806806806806807,0.7798702371144147,79,40.73856427019382
11,6.816816816816817,0.773200088774908,79,40.73856427019382
11,6.826826826826827,0.7565087805887615,79,40.73856427019382
11,6.836836836836837,0.7339588881068835,79,40.73856427019382
11,6.846846846846847,0.7063716913696447,79,40.73856427019382
11,6.856856856856857,0.6730708736205265,79,40.73856427019382
11,6.866866866866867,0.6281903655524346,79,40.73856427019382
11,6.876876876876877,0.5938059883814549,79,40.73856427019382
11,6.886886886886887,0.5480348214085753,79,40.73856427019382
11,6.896896896896897,0.4956397898567292,79,40.73856427019382
11,6.906906906906907,0.4422375852264095,79,40.73856427019382
11,6.916916916916917,0.3885772351448686,79,40.73856427019382
11,6.926926926926927,0.3498045265876752,79,40.73856427019382
11,6.936936936936937,0.3013115356348865,79,40.73856427019382
11,6.946946946946947,0.2500063900388334,79,40.73856427019382
11,6.956956956956957,0.2036621670066578,79,40.73856427019382
11,6.966966966966967,0.1693588680394131,79,40.73856427019382
11,6.976976976976977,0.1345225473755555,79,40.73856427019382
11,6.986986986986987,0.0938520970329389,79,40.73856427019382
11,6.996996996996997,0.0765976762495427,79,40.73856427019382
11,7.007007007007007,0.0521618766777763,79,40.73856427019382
11,7.017017017017017,0.0392936015758359,79,40.73856427019382
11,7.027027027027027,0.0219596758282786,79,40.73856427019382
11,7.037037037037037,0.009734707096891,79,40.73856427019382
11,7.047047047047047,-0.0029449910525635,79,40.73856427019382
11,7.057057057057057,0.0072801140566145,79,40.73856427019382
11,7.067067067067067,0.0003860508966045,79,40.73856427019382
11,7.077077077077077,0.0003721699744707,79,40.73856427019382
11,7.087087087087087,-0.0009199737230506,79,40.73856427019382
11,7.097097097097097,-0.0028037121259907,79,40.73856427019382
11,7.107107107107107,-0.0002786633633595,79,40.73856427019382
11,7.117117117117117,0.0085386745140574,79,40.73856427019382
11,7.127127127127127,-0.0109460164161305,79,40.73856427019382
11,7.137137137137137,-0.0187679275555902,79,40.73856427019382
11,7.147147147147147,-0.0316453850448445,79,40.73856427019382
11,7.157157157157157,-0.0473671128024425,79,40.73856427019382
11,7.167167167167167,-0.0678497079915439,79,40.73856427019382
11,7.177177177177177,-0.0875795216935005,79,40.73856427019382
11,7.187187187187187,-0.1196887650742054,79,40.73856427019382
11,7.197197197197197,-0.149778494393912,79,40.73856427019382
11,7.207207207207207,-0.1977449815957936,79,40.73856427019382
11,7.217217217217217,-0.2408925737761466,79,40.73856427019382
11,7.227227227227227,-0.2802437467911026,79,40.73856427019382
11,7.237237237237237,-0.3316877959223473,79,40.73856427019382
11,7.247247247247247,-0.3794564394266669,79,40.73856427019382
11,7.257257257257257,-0.4397551287609519,79,40.73856427019382
11,7.267267267267267,-0.480978894744226,79,40.73856427019382
11,7.277277277277277,-0.5361398399388543,79,40.73856427019382
11,7.287287287287287,-0.5856478020758151,79,40.73856427019382
11,7.297297297297297,-0.6288281960251914,79,40.73856427019382
11,7.307307307307307,-0.6595875872791575,79,40.73856427019382
11,7.317317317317317,-0.7059543699736895,79,40.73856427019382
11,7.327327327327327,-0.7364949728775568,79,40.73856427019382
11,7.337337337337337,-0.7613726643254524,79,40.73856427019382
11,7.347347347347347,-0.7636491263849011,79,40.73856427019382
11,7.357357357357357,-0.780077449418678,79,40.73856427019382
11,7.367367367367367,-0.772275856261181,79,40.73856427019382
11,7.377377377377377,-0.7695901260998345,79,40.73856427019382
11,7.387387387387387,-0.7511646727787031,79,40.73856427019382
11,7.397397397397397,-0.7122842604818258,79,40.73856427019382
11,7.407407407407407,-0.6779129770342801,79,40.73856427019382
11,7.4174174174174174,-0.6393294701296476,79,40.73856427019382
11,7.4274274274274275,-0.5704628575495255,79,40.73856427019382
11,7.437437437437437,-0.5212137630784969,79,40.73856427019382
11,7.447447447447447,-0.4434741156184942,79,40.73856427019382
11,7.4574574574574575,-0.3541583623419176,79,40.73856427019382
11,7.4674674674674675,-0.2820735924591894,79,40.73856427019382
11,7.477477477477477,-0.1992150693348182,79,40.73856427019382
11,7.487487487487487,-0.1120814693063762,79,40.73856427019382
11,7.4974974974974975,-0.0242330806835831,79,40.73856427019382
11,7.5075075075075075,0.0715222562442933,79,40.73856427019382
11,7.517517517517517,0.1530767127836221,79,40.73856427019382
11,7.527527527527527,0.2424580822309491,79,40.73856427019382
11,7.5375375375375375,0.3227839371654049,79,40.73856427019382
11,7.5475475475475475,0.4085622540188332,79,40.73856427019382
11,7.557557557557557,0.4920946529533535,79,40.73856427019382
11,7.567567567567567,0.5420589335433759,79,40.73856427019382
11,7.5775775775775776,0.6124704797826257,79,40.73856427019382
11,7.587587587587588,0.6603691183990708,79,40.73856427019382
11,7.597597597597598,0.7015344034866301,79,40.73856427019382
11,7.607607607607608,0.7359544233823773,79,40.73856427019382
11,7.617617617617618,0.7582018297406868,79,40.73856427019382
11,7.627627627627628,0.774315638933127,79,40.73856427019382
11,7.637637637637638,0.7727483116583611,79,40.73856427019382
11,7.647647647647648,0.7673282843423023,79,40.73856427019382
11,7.657657657657658,0.7604365204441458,79,40.73856427019382
11,7.667667667667668,0.7493525065377872,79,40.73856427019382
11,7.677677677677678,0.7119088119629606,79,40.73856427019382
11,7.687687687687688,0.687537369362511,79,40.73856427019382
11,7.697697697697698,0.6545291968035333,79,40.73856427019382
11,7.707707707707708,0.605012334021612,79,40.73856427019382
11,7.717717717717718,0.5603055057725511,79,40.73856427019382
11,7.727727727727728,0.5105185931941154,79,40.73856427019382
11,7.737737737737738,0.4508832128527823,79,40.73856427019382
11,7.747747747747748,0.4116238054061643,79,40.73856427019382
11,7.757757757757758,0.3515695829960581,79,40.73856427019382
11,7.767767767767768,0.3082017319158877,79,40.73856427019382
11,7.777777777777778,0.26462875762722,79,40.73856427019382
11,7.787787787787788,0.210875454379597,79,40.73856427019382
11,7.797797797797798,0.1710391953896725,79,40.73856427019382
11,7.807807807807808,0.135242321476643,79,40.73856427019382
11,7.817817817817818,0.1073880019094206,79,40.73856427019382
11,7.827827827827828,0.0856206787849846,79,40.73856427019382
11,7.837837837837838,0.0543719851079181,79,40.73856427019382
11,7.847847847847848,0.0467666057142715,79,40.73856427019382
11,7.857857857857858,0.026072485544156,79,40.73856427019382
11,7.867867867867868,0.0146707422354726,79,40.73856427019382
11,7.877877877877878,0.0106700823426143,79,40.73856427019382
11,7.887887887887888,0.0033629051167923,79,40.73856427019382
11,7.897897897897898,0.0031309112006765,79,40.73856427019382
11,7.907907907907908,0.0009345311688169,79,40.73856427019382
11,7.917917917917918,-0.0024881632276247,79,40.73856427019382
11,7.927927927927928,0.0059614499384764,79,40.73856427019382
11,7.937937937937938,0.0062887068526359,79,40.73856427019382
11,7.947947947947948,-0.006370202451347,79,40.73856427019382
11,7.957957957957958,-0.001995849817054,79,40.73856427019382
11,7.967967967967968,-0.012673227701841,79,40.73856427019382
11,7.977977977977978,-0.0293022683285958,79,40.73856427019382
11,7.987987987987988,-0.0429748393310775,79,40.73856427019382
11,7.997997997997998,-0.0597873732404432,79,40.73856427019382
11,8.008008008008009,-0.0882478106818583,79,40.73856427019382
11,8.018018018018019,-0.1251334270550561,79,40.73856427019382
11,8.028028028028029,-0.1570984566043589,79,40.73856427019382
11,8.038038038038039,-0.1989713656824098,79,40.73856427019382
11,8.048048048048049,-0.2224713343724067,79,40.73856427019382
11,8.058058058058059,-0.2705185475140248,79,40.73856427019382
11,8.068068068068069,-0.3202490420945902,79,40.73856427019382
11,8.078078078078079,-0.3647648000059522,79,40.73856427019382
11,8.088088088088089,-0.4202351111507623,79,40.73856427019382
11,8.098098098098099,-0.4627577239842069,79,40.73856427019382
11,8.108108108108109,-0.5276774914938055,79,40.73856427019382
11,8.118118118118119,-0.5645203583725346,79,40.73856427019382
11,8.128128128128129,-0.6158639544984674,79,40.73856427019382
11,8.138138138138139,-0.6554616286749576,79,40.73856427019382
11,8.148148148148149,-0.6954360588756158,79,40.73856427019382
11,8.158158158158159,-0.7306298459539184,79,40.73856427019382
11,8.168168168168169,-0.7517990198815085,79,40.73856427019382
11,8.178178178178179,-0.763106371498829,79,40.73856427019382
11,8.188188188188189,-0.7764897522207299,79,40.73856427019382
11,8.198198198198199,-0.7777639496360899,79,40.73856427019382
11,8.208208208208209,-0.7674825015905548,79,40.73856427019382
11,8.218218218218219,-0.7472482824609551,79,40.73856427019382
11,8.228228228228229,-0.7290228538115737,79,40.73856427019382
11,8.238238238238239,-0.7003496386958871,79,40.73856427019382
11,8.248248248248249,-0.6399529043717351,79,40.73856427019382
11,8.258258258258259,-0.5872183150921613,79,40.73856427019382
11,8.268268268268269,-0.5351003831858664,79,40.73856427019382
11,8.278278278278279,-0.470554236403523,79,40.73856427019382
11,8.288288288288289,-0.3816786811919181,79,40.73856427019382
11,8.298298298298299,-0.3105501198207686,79,40.73856427019382
11,8.308308308308309,-0.2214662247266813,79,40.73856427019382
11,8.318318318318319,-0.1381090500073467,79,40.73856427019382
11,8.328328328328329,-0.0451897866937862,79,40.73856427019382
11,8.338338338338339,0.0494504769669855,79,40.73856427019382
11,8.348348348348349,0.1390829257380177,79,40.73856427019382
11,8.358358358358359,0.2265238220891191,79,40.73856427019382
11,8.368368368368369,0.3109189177606421,79,40.73856427019382
11,8.378378378378379,0.390827768486865,79,40.73856427019382
11,8.388388388388389,0.4531793715411407,79,40.73856427019382
11,8.398398398398399,0.5350645028219232,79,40.73856427019382
11,8.408408408408409,0.5935970876862515,79,40.73856427019382
11,8.418418418418419,0.6431483789837208,79,40.73856427019382
11,8.428428428428429,0.6910478822416288,79,40.73856427019382
11,8.438438438438439,0.7280486963295697,79,40.73856427019382
11,8.448448448448449,0.7514975283777803,79,40.73856427019382
11,8.458458458458459,0.7764729617784243,79,40.73856427019382
11,8.468468468468469,0.7801404802718082,79,40.73856427019382
11,8.478478478478479,0.7691494750667396,79,40.73856427019382
11,8.488488488488489,0.7625391014941983,79,40.73856427019382
11,8.498498498498499,0.7526069451098286,79,40.73856427019382
11,8.508508508508509,0.7258776191990891,79,40.73856427019382
11,8.518518518518519,0.6857079987249666,79,40.73856427019382
11,8.528528528528529,0.6582475885162496,79,40.73856427019382
11,8.538538538538539,0.6182128792734304,79,40.73856427019382
11,8.548548548548549,0.5683724945629288,79,40.73856427019382
11,8.558558558558559,0.5188912896682881,79,40.73856427019382
11,8.568568568568569,0.468487560152459,79,40.73856427019382
11,8.578578578578579,0.416422817971832,79,40.73856427019382
11,8.588588588588589,0.3691896104566923,79,40.73856427019382
11,8.598598598598599,0.3126809227763106,79,40.73856427019382
11,8.608608608608609,0.2752418600844409,79,40.73856427019382
11,8.618618618618619,0.2375856560011005,79,40.73856427019382
11,8.62862862862863,0.1830846378031363,79,40.73856427019382
11,8.63863863863864,0.1549316380880818,79,40.73856427019382
11,8.64864864864865,0.1086986411528705,79,40.73856427019382
11,8.65865865865866,0.0882834756913376,79,40.73856427019382
11,8.66866866866867,0.0682964560883327,79,40.73856427019382
11,8.67867867867868,0.0338483330971691,79,40.73856427019382
11,8.68868868868869,0.0268674121276374,79,40.73856427019382
11,8.6986986986987,0.0202066406900569,79,40.73856427019382
11,8.70870870870871,0.0151009084841371,79,40.73856427019382
11,8.71871871871872,0.0103007432475795,79,40.73856427019382
11,8.72872872872873,0.0010515358678067,79,40.73856427019382
11,8.73873873873874,0.0117304029984601,79,40.73856427019382
11,8.74874874874875,0.002797806072862,79,40.73856427019382
11,8.75875875875876,0.0013712411972493,79,40.73856427019382
11,8.76876876876877,-0.0007066474179862,79,40.73856427019382
11,8.77877877877878,0.0070717299573088,79,40.73856427019382
11,8.78878878878879,-0.0029419024606304,79,40.73856427019382
11,8.7987987987988,-0.0157848483920432,79,40.73856427019382
11,8.80880880880881,-0.0311447417565467,79,40.73856427019382
11,8.81881881881882,-0.0383785094872847,79,40.73856427019382
11,8.82882882882883,-0.0566356341171001,79,40.73856427019382
11,8.83883883883884,-0.081818466377989,79,40.73856427019382
11,8.84884884884885,-0.1022589795794519,79,40.73856427019382
11,8.85885885885886,-0.1361306346849181,79,40.73856427019382
11,8.86886886886887,-0.1768589179933979,79,40.73856427019382
11,8.87887887887888,-0.2148445993250194,79,40.73856427019382
11,8.88888888888889,-0.2631501749551901,79,40.73856427019382
11,8.8988988988989,-0.3085482351938726,79,40.73856427019382
11,8.90890890890891,-0.3478584652297988,79,40.73856427019382
11,8.91891891891892,-0.3997145023680115,79,40.73856427019382
11,8.92892892892893,-0.4642141728816151,79,40.73856427019382
11,8.93893893893894,-0.5034560950316586,79,40.73856427019382
11,8.94894894894895,-0.5546643930441466,79,40.73856427019382
11,8.95895895895896,-0.5995133923517993,79,40.73856427019382
11,8.96896896896897,-0.6402488256701149,79,40.73856427019382
11,8.97897897897898,-0.6778910378964393,79,40.73856427019382
11,8.98898898898899,-0.7216674657297635,79,40.73856427019382
11,8.998998998999,-0.7468389640139089,79,40.73856427019382
11,9.00900900900901,-0.7675624936243894,79,40.73856427019382
11,9.01901901901902,-0.7707432729115874,79,40.73856427019382
11,9.02902902902903,-0.7756610171985929,79,40.73856427019382
11,9.03903903903904,-0.7688482655985766,79,40.73856427019382
11,9.04904904904905,-0.7695416343371965,79,40.73856427019382
11,9.05905905905906,-0.7355448204476911,79,40.73856427019382
11,9.06906906906907,-0.7044785465005211,79,40.73856427019382
11,9.07907907907908,-0.6604037330158712,79,40.73856427019382
11,9.08908908908909,-0.6142540263066489,79,40.73856427019382
11,9.0990990990991,-0.5433185235828754,79,40.73856427019382
11,9.10910910910911,-0.4804589018219117,79,40.73856427019382
11,9.11911911911912,-0.400961145048314,79,40.73856427019382
11,9.12912912912913,-0.3358221623131449,79,40.73856427019382
11,9.13913913913914,-0.2445174456686837,79,40.73856427019382
11,9.14914914914915,-0.1567403148736263,79,40.73856427019382
11,9.15915915915916,-0.0688615469489717,79,40.73856427019382
11,9.16916916916917,0.0252177096792353,79,40.73856427019382
11,9.17917917917918,0.1154037863827992,79,40.73856427019382
11,9.18918918918919,0.2077772715151265,79,40.73856427019382
11,9.1991991991992,0.2865096254054443,79,40.73856427019382
11,9.20920920920921,0.3735406757410898,79,40.73856427019382
11,9.21921921921922,0.4402673859286674,79,40.73856427019382
11,9.22922922922923,0.5137395464246071,79,40.73856427019382
11,9.23923923923924,0.5791161294114466,79,40.73856427019382
11,9.24924924924925,0.6252291908563695,79,40.73856427019382
11,9.25925925925926,0.6838231540999107,79,40.73856427019382
11,9.26926926926927,0.727436836843021,79,40.73856427019382
11,9.27927927927928,0.7499368829200252,79,40.73856427019382
11,9.28928928928929,0.7713847060910609,79,40.73856427019382
11,9.2992992992993,0.7743932527578326,79,40.73856427019382
11,9.30930930930931,0.7710265420512677,79,40.73856427019382
11,9.31931931931932,0.7718452606489253,79,40.73856427019382
11,9.32932932932933,0.7599562144844656,79,40.73856427019382
11,9.33933933933934,0.7294289294855466,79,40.73856427019382
11,9.34934934934935,0.6958010522210933,79,40.73856427019382
11,9.35935935935936,0.666120528553222,79,40.73856427019382
11,9.36936936936937,0.6259881078021907,79,40.73856427019382
11,9.37937937937938,0.5744495019002184,79,40.73856427019382
11,9.38938938938939,0.5256391915293095,79,40.73856427019382
11,9.3993993993994,0.4833190685248025,79,40.73856427019382
11,9.40940940940941,0.4379717759972948,79,40.73856427019382
11,9.41941941941942,0.3881983351055966,79,40.73856427019382
11,9.42942942942943,0.3299852746617321,79,40.73856427019382
11,9.43943943943944,0.280905627944828,79,40.73856427019382
11,9.44944944944945,0.2406633025759201,79,40.73856427019382
11,9.45945945945946,0.1939152030741838,79,40.73856427019382
11,9.46946946946947,0.1591121355832346,79,40.73856427019382
11,9.47947947947948,0.1176530973842458,79,40.73856427019382
11,9.48948948948949,0.0932995415103,79,40.73856427019382
11,9.4994994994995,0.0654245436683101,79,40.73856427019382
11,9.50950950950951,0.0569939438742727,79,40.73856427019382
11,9.51951951951952,0.0309447526568415,79,40.73856427019382
11,9.52952952952953,0.0188351913726483,79,40.73856427019382
11,9.53953953953954,0.0097328780209804,79,40.73856427019382
11,9.54954954954955,0.0065298776355022,79,40.73856427019382
11,9.55955955955956,-0.0009302851485674,79,40.73856427019382
11,9.56956956956957,0.0071435902664488,79,40.73856427019382
11,9.57957957957958,-0.0010709386364638,79,40.73856427019382
11,9.58958958958959,-0.0060751715922942,79,40.73856427019382
11,9.5995995995996,-0.0013447808707592,79,40.73856427019382
11,9.60960960960961,0.0043063803830507,79,40.73856427019382
11,9.61961961961962,-0.0019455113647448,79,40.73856427019382
11,9.62962962962963,-0.0131836721490763,79,40.73856427019382
11,9.63963963963964,-0.0296076830693571,79,40.73856427019382
11,9.64964964964965,-0.0392163445167967,79,40.73856427019382
11,9.65965965965966,-0.0516198779377797,79,40.73856427019382
11,9.66966966966967,-0.071954370310592,79,40.73856427019382
11,9.67967967967968,-0.0965022664095996,79,40.73856427019382
11,9.68968968968969,-0.1407801211048602,79,40.73856427019382
11,9.6996996996997,-0.166930734631131,79,40.73856427019382
11,9.70970970970971,-0.2069006582139382,79,40.73856427019382
11,9.71971971971972,-0.2518583534351806,79,40.73856427019382
11,9.72972972972973,-0.2915640999228488,79,40.73856427019382
11,9.73973973973974,-0.3402143144732671,79,40.73856427019382
11,9.74974974974975,-0.3907532560725703,79,40.73856427019382
11,9.75975975975976,-0.4462512248362658,79,40.73856427019382
11,9.76976976976977,-0.4913642757818356,79,40.73856427019382
11,9.77977977977978,-0.5412135148156376,79,40.73856427019382
11,9.78978978978979,-0.5901111772709778,79,40.73856427019382
11,9.7997997997998,-0.6314846519812213,79,40.73856427019382
11,9.80980980980981,-0.6740709278512398,79,40.73856427019382
11,9.81981981981982,-0.7148670997938883,79,40.73856427019382
11,9.82982982982983,-0.737910348794849,79,40.73856427019382
11,9.83983983983984,-0.755410372265142,79,40.73856427019382
11,9.84984984984985,-0.7670013862133805,79,40.73856427019382
11,9.85985985985986,-0.7834248905482909,79,40.73856427019382
11,9.86986986986987,-0.7821292775172309,79,40.73856427019382
11,9.87987987987988,-0.7706281150175701,79,40.73856427019382
11,9.88988988988989,-0.7394341792388953,79,40.73856427019382
11,9.8998998998999,-0.7082741938289594,79,40.73856427019382
11,9.90990990990991,-0.6654328853742468,79,40.73856427019382
11,9.91991991991992,-0.628909227531232,79,40.73856427019382
11,9.92992992992993,-0.563542480961527,79,40.73856427019382
11,9.93993993993994,-0.499053083904007,79,40.73856427019382
11,9.94994994994995,-0.428753449710622,79,40.73856427019382
11,9.95995995995996,-0.3438826760778541,79,40.73856427019382
11,9.96996996996997,-0.2605115526361199,79,40.73856427019382
11,9.97997997997998,-0.1807212201814187,79,40.73856427019382
11,9.98998998998999,-0.0881566661791211,79,40.73856427019382
11,10.0,0.0008652527360156,79,40.73856427019382
