Subject_ID,Time,PPG,HR,HRV
15,0.0,-0.0013184207984805,90,59.40902283697063
15,0.01001001001001,0.0932223441257206,90,59.40902283697063
15,0.02002002002002,0.1714372319048039,90,59.40902283697063
15,0.03003003003003,0.2605831926483811,90,59.40902283697063
15,0.04004004004004,0.3525278980283227,90,59.40902283697063
15,0.05005005005005,0.4310172978860965,90,59.40902283697063
15,0.06006006006006,0.5038295680115058,90,59.40902283697063
15,0.07007007007007,0.5558095660603158,90,59.40902283697063
15,0.08008008008008,0.6173143306085447,90,59.40902283697063
15,0.09009009009009,0.6797282610542495,90,59.40902283697063
15,0.1001001001001,0.7057237856474878,90,59.40902283697063
15,0.1101101101101101,0.742713010817548,90,59.40902283697063
15,0.1201201201201201,0.7709075395275381,90,59.40902283697063
15,0.1301301301301301,0.777857633300255,90,59.40902283697063
15,0.1401401401401401,0.7873683920594557,90,59.40902283697063
15,0.1501501501501501,0.7785944752741687,90,59.40902283697063
15,0.1601601601601601,0.7583421786713422,90,59.40902283697063
15,0.1701701701701701,0.7372684738060716,90,59.40902283697063
15,0.1801801801801801,0.7053246046132384,90,59.40902283697063
15,0.1901901901901901,0.676829166088026,90,59.40902283697063
15,0.2002002002002001,0.6364633671857347,90,59.40902283697063
15,0.2102102102102102,0.5836080439048197,90,59.40902283697063
15,0.2202202202202202,0.5514642322456419,90,59.40902283697063
15,0.2302302302302302,0.4866498336830124,90,59.40902283697063
15,0.2402402402402402,0.4326419997797699,90,59.40902283697063
15,0.2502502502502503,0.3913342876274068,90,59.40902283697063
15,0.2602602602602603,0.3409077157328412,90,59.40902283697063
15,0.2702702702702703,0.2882497513967083,90,59.40902283697063
15,0.2802802802802803,0.2490258416508058,90,59.40902283697063
15,0.2902902902902903,0.2103062745969796,90,59.40902283697063
15,0.3003003003003003,0.1656409959915409,90,59.40902283697063
15,0.3103103103103103,0.1351580653421918,90,59.40902283697063
15,0.3203203203203203,0.1090168419587574,90,59.40902283697063
15,0.3303303303303303,0.0717540964714445,90,59.40902283697063
15,0.3403403403403403,0.0536979370245893,90,59.40902283697063
15,0.3503503503503503,0.0372228192141166,90,59.40902283697063
15,0.3603603603603603,0.0185672001828772,90,59.40902283697063
15,0.3703703703703703,0.0095777351505637,90,59.40902283697063
15,0.3803803803803803,0.0062220616094897,90,59.40902283697063
15,0.3903903903903903,-0.0026870853998027,90,59.40902283697063
15,0.4004004004004003,0.0036977178750369,90,59.40902283697063
15,0.4104104104104104,-0.0011822382536629,90,59.40902283697063
15,0.4204204204204204,-0.0063406597843735,90,59.40902283697063
15,0.4304304304304304,0.0070311764278785,90,59.40902283697063
15,0.4404404404404404,-0.0021332541733258,90,59.40902283697063
15,0.4504504504504504,-0.0005490780520465,90,59.40902283697063
15,0.4604604604604604,-0.0042795167316294,90,59.40902283697063
15,0.4704704704704704,-0.0245965918927968,90,59.40902283697063
15,0.4804804804804805,-0.0295271096936492,90,59.40902283697063
15,0.4904904904904905,-0.0504167206063833,90,59.40902283697063
15,0.5005005005005005,-0.0756946336930588,90,59.40902283697063
15,0.5105105105105106,-0.0970304038624041,90,59.40902283697063
15,0.5205205205205206,-0.126857719656469,90,59.40902283697063
15,0.5305305305305306,-0.1631862451115908,90,59.40902283697063
15,0.5405405405405406,-0.1977444383895614,90,59.40902283697063
15,0.5505505505505506,-0.233913708271087,90,59.40902283697063
15,0.5605605605605606,-0.2768966229381043,90,59.40902283697063
15,0.5705705705705706,-0.3324632586369885,90,59.40902283697063
15,0.5805805805805806,-0.3852546831102373,90,59.40902283697063
15,0.5905905905905906,-0.4371794000604015,90,59.40902283697063
15,0.6006006006006006,-0.480937589371899,90,59.40902283697063
15,0.6106106106106106,-0.5359641193573157,90,59.40902283697063
15,0.6206206206206206,-0.5788679576302843,90,59.40902283697063
15,0.6306306306306306,-0.6241571958882407,90,59.40902283697063
15,0.6406406406406406,-0.6714163357496326,90,59.40902283697063
15,0.6506506506506506,-0.7006034398178255,90,59.40902283697063
15,0.6606606606606606,-0.7324926947519542,90,59.40902283697063
15,0.6706706706706707,-0.7498369697353598,90,59.40902283697063
15,0.6806806806806807,-0.7757230567570994,90,59.40902283697063
15,0.6906906906906907,-0.7714390722976912,90,59.40902283697063
15,0.7007007007007007,-0.7726770208956414,90,59.40902283697063
15,0.7107107107107107,-0.75440118592082,90,59.40902283697063
15,0.7207207207207207,-0.7492780908767899,90,59.40902283697063
15,0.7307307307307307,-0.7238012143903265,90,59.40902283697063
15,0.7407407407407407,-0.6848267693876168,90,59.40902283697063
15,0.7507507507507507,-0.6372018226158164,90,59.40902283697063
15,0.7607607607607607,-0.5781247830121247,90,59.40902283697063
15,0.7707707707707707,-0.520357953921012,90,59.40902283697063
15,0.7807807807807807,-0.4364091633036658,90,59.40902283697063
15,0.7907907907907907,-0.3739557582812332,90,59.40902283697063
15,0.8008008008008007,-0.2852156065410491,90,59.40902283697063
15,0.8108108108108109,-0.2000698758914912,90,59.40902283697063
15,0.8208208208208209,-0.1160214286324182,90,59.40902283697063
15,0.8308308308308309,-0.0245844401278762,90,59.40902283697063
15,0.8408408408408409,0.0728774193141999,90,59.40902283697063
15,0.8508508508508509,0.1664955253232366,90,59.40902283697063
15,0.8608608608608609,0.2476863892443401,90,59.40902283697063
15,0.8708708708708709,0.3195855623978721,90,59.40902283697063
15,0.8808808808808809,0.41013702735812,90,59.40902283697063
15,0.8908908908908909,0.4802243185027636,90,59.40902283697063
15,0.9009009009009008,0.5502266151227854,90,59.40902283697063
15,0.9109109109109108,0.612572951218179,90,59.40902283697063
15,0.9209209209209208,0.6679894393549529,90,59.40902283697063
15,0.9309309309309308,0.7019591951132717,90,59.40902283697063
15,0.9409409409409408,0.736739593060529,90,59.40902283697063
15,0.950950950950951,0.7513415080962519,90,59.40902283697063
15,0.960960960960961,0.7733113017574568,90,59.40902283697063
15,0.970970970970971,0.7765397437330929,90,59.40902283697063
15,0.980980980980981,0.7719104817171554,90,59.40902283697063
15,0.990990990990991,0.7623551134225114,90,59.40902283697063
15,1.001001001001001,0.7477828615561224,90,59.40902283697063
15,1.011011011011011,0.7191162990098313,90,59.40902283697063
15,1.021021021021021,0.6855100374082777,90,59.40902283697063
15,1.031031031031031,0.6485804309324479,90,59.40902283697063
15,1.0410410410410411,0.610273290255337,90,59.40902283697063
15,1.0510510510510511,0.552420007984725,90,59.40902283697063
15,1.0610610610610611,0.5150147743128334,90,59.40902283697063
15,1.0710710710710711,0.4539714651653573,90,59.40902283697063
15,1.0810810810810811,0.4105653102530824,90,59.40902283697063
15,1.0910910910910911,0.3525361560046504,90,59.40902283697063
15,1.1011011011011012,0.3059206271592498,90,59.40902283697063
15,1.1111111111111112,0.263136702494021,90,59.40902283697063
15,1.1211211211211212,0.2087252940011684,90,59.40902283697063
15,1.1311311311311312,0.1750198539648676,90,59.40902283697063
15,1.1411411411411412,0.1493646262884278,90,59.40902283697063
15,1.1511511511511512,0.1057259274338744,90,59.40902283697063
15,1.1611611611611612,0.0813392483197278,90,59.40902283697063
15,1.1711711711711712,0.0608297852330533,90,59.40902283697063
15,1.1811811811811812,0.0351486163904792,90,59.40902283697063
15,1.1911911911911912,0.0181334858792305,90,59.40902283697063
15,1.2012012012012012,0.0137621105619498,90,59.40902283697063
15,1.2112112112112112,0.0030384649406378,90,59.40902283697063
15,1.2212212212212212,0.008627329022908,90,59.40902283697063
15,1.2312312312312312,0.0063546272308203,90,59.40902283697063
15,1.2412412412412412,-0.0038681610337469,90,59.40902283697063
15,1.2512512512512513,-0.00077880818896,90,59.40902283697063
15,1.2612612612612613,-0.0033568760338815,90,59.40902283697063
15,1.2712712712712713,0.0023640169214622,90,59.40902283697063
15,1.2812812812812813,-0.0028435328876313,90,59.40902283697063
15,1.2912912912912913,-0.0061065026960907,90,59.40902283697063
15,1.3013013013013013,-0.0158524004416769,90,59.40902283697063
15,1.3113113113113113,-0.0222623037982258,90,59.40902283697063
15,1.3213213213213213,-0.0354020937413584,90,59.40902283697063
15,1.3313313313313313,-0.0634612543519739,90,59.40902283697063
15,1.3413413413413413,-0.0862498511857781,90,59.40902283697063
15,1.351351351351351,-0.1142808114652813,90,59.40902283697063
15,1.361361361361361,-0.1541213507684294,90,59.40902283697063
15,1.371371371371371,-0.1808620664265116,90,59.40902283697063
15,1.3813813813813811,-0.2183334732535123,90,59.40902283697063
15,1.3913913913913911,-0.2688160515721701,90,59.40902283697063
15,1.4014014014014011,-0.3202202743383281,90,59.40902283697063
15,1.4114114114114114,-0.360167761222963,90,59.40902283697063
15,1.4214214214214214,-0.4106374888024671,90,59.40902283697063
15,1.4314314314314314,-0.4717701653931278,90,59.40902283697063
15,1.4414414414414414,-0.5308282499724722,90,59.40902283697063
15,1.4514514514514514,-0.5599374039223982,90,59.40902283697063
15,1.4614614614614614,-0.6188891996851233,90,59.40902283697063
15,1.4714714714714714,-0.6470918861900603,90,59.40902283697063
15,1.4814814814814814,-0.690019285330964,90,59.40902283697063
15,1.4914914914914914,-0.7219257146939013,90,59.40902283697063
15,1.5015015015015014,-0.7551093447564844,90,59.40902283697063
15,1.5115115115115114,-0.7589584965631876,90,59.40902283697063
15,1.5215215215215214,-0.7809767226902152,90,59.40902283697063
15,1.5315315315315314,-0.773341262339756,90,59.40902283697063
15,1.5415415415415414,-0.7684042346087974,90,59.40902283697063
15,1.5515515515515514,-0.755231746831336,90,59.40902283697063
15,1.5615615615615617,-0.7283667871059805,90,59.40902283697063
15,1.5715715715715717,-0.6869537984370461,90,59.40902283697063
15,1.5815815815815817,-0.643199836118778,90,59.40902283697063
15,1.5915915915915917,-0.5875835335401023,90,59.40902283697063
15,1.6016016016016017,-0.527717475907286,90,59.40902283697063
15,1.6116116116116117,-0.4648678729411912,90,59.40902283697063
15,1.6216216216216215,-0.3887039222688021,90,59.40902283697063
15,1.6316316316316315,-0.3075703011414088,90,59.40902283697063
15,1.6416416416416415,-0.231723345983048,90,59.40902283697063
15,1.6516516516516515,-0.1331100271478968,90,59.40902283697063
15,1.6616616616616615,-0.0410030245189698,90,59.40902283697063
15,1.6716716716716715,0.0476559073476935,90,59.40902283697063
15,1.6816816816816818,0.1311888042190911,90,59.40902283697063
15,1.6916916916916918,0.2246482244127695,90,59.40902283697063
15,1.7017017017017018,0.3097786447456546,90,59.40902283697063
15,1.7117117117117118,0.3981959098780739,90,59.40902283697063
15,1.7217217217217218,0.4675378707249527,90,59.40902283697063
15,1.7317317317317318,0.5246033602909264,90,59.40902283697063
15,1.7417417417417418,0.5978446191295705,90,59.40902283697063
15,1.7517517517517518,0.6411803146427116,90,59.40902283697063
15,1.7617617617617618,0.6999708375590994,90,59.40902283697063
15,1.7717717717717718,0.7388335385446423,90,59.40902283697063
15,1.7817817817817818,0.7512510436854887,90,59.40902283697063
15,1.7917917917917918,0.7625850809394865,90,59.40902283697063
15,1.8018018018018016,0.7792852040402831,90,59.40902283697063
15,1.811811811811812,0.7838434774299715,90,59.40902283697063
15,1.8218218218218216,0.762109195280373,90,59.40902283697063
15,1.831831831831832,0.7502617356344573,90,59.40902283697063
15,1.8418418418418416,0.7202835603350392,90,59.40902283697063
15,1.851851851851852,0.6895217725942215,90,59.40902283697063
15,1.8618618618618616,0.6584343217575397,90,59.40902283697063
15,1.871871871871872,0.6145358969540132,90,59.40902283697063
15,1.8818818818818817,0.5584537361265258,90,59.40902283697063
15,1.891891891891892,0.5255378208405965,90,59.40902283697063
15,1.901901901901902,0.4715672355308041,90,59.40902283697063
15,1.911911911911912,0.4209462434818588,90,59.40902283697063
15,1.921921921921922,0.3712919149541346,90,59.40902283697063
15,1.931931931931932,0.3152646890897934,90,59.40902283697063
15,1.941941941941942,0.2713603735379045,90,59.40902283697063
15,1.951951951951952,0.2345756848125554,90,59.40902283697063
15,1.961961961961962,0.186541898305914,90,59.40902283697063
15,1.971971971971972,0.1463013613533123,90,59.40902283697063
15,1.981981981981982,0.1246108412418241,90,59.40902283697063
15,1.991991991991992,0.0926609589274189,90,59.40902283697063
15,2.002002002002002,0.0651447298853862,90,59.40902283697063
15,2.012012012012012,0.0486784887024807,90,59.40902283697063
15,2.022022022022022,0.0329627203804979,90,59.40902283697063
15,2.032032032032032,0.0130759612197904,90,59.40902283697063
15,2.042042042042042,0.0100069370109883,90,59.40902283697063
15,2.052052052052052,0.012507114542511,90,59.40902283697063
15,2.062062062062062,-0.0014888976511795,90,59.40902283697063
15,2.072072072072072,-0.0054315954199793,90,59.40902283697063
15,2.0820820820820822,0.0075357088638277,90,59.40902283697063
15,2.092092092092092,0.0070532906675219,90,59.40902283697063
15,2.1021021021021022,0.0067330974788222,90,59.40902283697063
15,2.112112112112112,-0.0176645673452998,90,59.40902283697063
15,2.1221221221221223,-0.0098974243240216,90,59.40902283697063
15,2.1321321321321323,-0.0166376393833084,90,59.40902283697063
15,2.1421421421421423,-0.0301198284576017,90,59.40902283697063
15,2.1521521521521523,-0.0349296265774406,90,59.40902283697063
15,2.1621621621621623,-0.0542188789108677,90,59.40902283697063
15,2.1721721721721723,-0.0825216244658014,90,59.40902283697063
15,2.1821821821821823,-0.1067674504887795,90,59.40902283697063
15,2.1921921921921923,-0.1397491607976608,90,59.40902283697063
15,2.2022022022022023,-0.1837440128622972,90,59.40902283697063
15,2.2122122122122123,-0.2135780481997697,90,59.40902283697063
15,2.2222222222222223,-0.2592856169147842,90,59.40902283697063
15,2.2322322322322323,-0.3098509150137239,90,59.40902283697063
15,2.2422422422422423,-0.3528085342654533,90,59.40902283697063
15,2.2522522522522523,-0.3960965151702068,90,59.40902283697063
15,2.2622622622622623,-0.4463832898876873,90,59.40902283697063
15,2.2722722722722724,-0.5108243962665124,90,59.40902283697063
15,2.2822822822822824,-0.5583136203995916,90,59.40902283697063
15,2.2922922922922924,-0.59423335022672,90,59.40902283697063
15,2.3023023023023024,-0.6461827886990911,90,59.40902283697063
15,2.3123123123123124,-0.6874335894485774,90,59.40902283697063
15,2.3223223223223224,-0.711976919731178,90,59.40902283697063
15,2.3323323323323324,-0.7459080086291119,90,59.40902283697063
15,2.3423423423423424,-0.7589783244339848,90,59.40902283697063
15,2.3523523523523524,-0.7704219415631133,90,59.40902283697063
15,2.3623623623623624,-0.7789648712021423,90,59.40902283697063
15,2.3723723723723724,-0.7755913042492939,90,59.40902283697063
15,2.3823823823823824,-0.7515866804730059,90,59.40902283697063
15,2.3923923923923924,-0.7355068432656341,90,59.40902283697063
15,2.4024024024024024,-0.6997212063635738,90,59.40902283697063
15,2.4124124124124124,-0.6593552326026989,90,59.40902283697063
15,2.4224224224224224,-0.6124782306190384,90,59.40902283697063
15,2.4324324324324325,-0.5499207678863859,90,59.40902283697063
15,2.4424424424424425,-0.4857710075733253,90,59.40902283697063
15,2.4524524524524525,-0.399032954485565,90,59.40902283697063
15,2.4624624624624625,-0.3279998480261226,90,59.40902283697063
15,2.4724724724724725,-0.2482712195073883,90,59.40902283697063
15,2.4824824824824825,-0.1550991501607622,90,59.40902283697063
15,2.4924924924924925,-0.0586043166244322,90,59.40902283697063
15,2.5025025025025025,0.0210952332940847,90,59.40902283697063
15,2.5125125125125125,0.1120466510582054,90,59.40902283697063
15,2.5225225225225225,0.2078297827021796,90,59.40902283697063
15,2.5325325325325325,0.2908097887659284,90,59.40902283697063
15,2.5425425425425425,0.3673523374765771,90,59.40902283697063
15,2.5525525525525525,0.4541019188997305,90,59.40902283697063
15,2.5625625625625625,0.5091971123597696,90,59.40902283697063
15,2.5725725725725725,0.5801000058888631,90,59.40902283697063
15,2.5825825825825826,0.6335501491712215,90,59.40902283697063
15,2.592592592592593,0.6763516767514199,90,59.40902283697063
15,2.6026026026026026,0.7247336700167276,90,59.40902283697063
15,2.612612612612613,0.7495738810550323,90,59.40902283697063
15,2.6226226226226226,0.7644047288359892,90,59.40902283697063
15,2.6326326326326326,0.7866371413340117,90,59.40902283697063
15,2.6426426426426426,0.7787768237885409,90,59.40902283697063
15,2.6526526526526526,0.7742528271722582,90,59.40902283697063
15,2.6626626626626626,0.753155986105726,90,59.40902283697063
15,2.6726726726726726,0.7292825832656806,90,59.40902283697063
15,2.6826826826826826,0.7036402195745862,90,59.40902283697063
15,2.6926926926926926,0.6690044343803316,90,59.40902283697063
15,2.702702702702702,0.6199931143925512,90,59.40902283697063
15,2.7127127127127126,0.5837234698715689,90,59.40902283697063
15,2.722722722722722,0.5244671183300517,90,59.40902283697063
15,2.7327327327327327,0.4766171343654337,90,59.40902283697063
15,2.7427427427427427,0.4441834774134913,90,59.40902283697063
15,2.7527527527527527,0.3834394013103029,90,59.40902283697063
15,2.7627627627627627,0.3322212207629312,90,59.40902283697063
15,2.7727727727727727,0.274203998333677,90,59.40902283697063
15,2.7827827827827827,0.2372441018684611,90,59.40902283697063
15,2.7927927927927927,0.1914942890040942,90,59.40902283697063
15,2.8028028028028027,0.163233895213695,90,59.40902283697063
15,2.8128128128128127,0.1297582506586684,90,59.40902283697063
15,2.8228228228228227,0.0986627645430379,90,59.40902283697063
15,2.8328328328328327,0.0749265680478121,90,59.40902283697063
15,2.8428428428428427,0.0449213656474522,90,59.40902283697063
15,2.8528528528528527,0.0344645299946535,90,59.40902283697063
15,2.8628628628628627,0.0113887599888965,90,59.40902283697063
15,2.8728728728728727,0.007572951029914,90,59.40902283697063
15,2.8828828828828827,0.0048163597899995,90,59.40902283697063
15,2.8928928928928928,0.0008403851152955,90,59.40902283697063
15,2.9029029029029028,0.0014868296869393,90,59.40902283697063
15,2.9129129129129128,0.0077754689870175,90,59.40902283697063
15,2.9229229229229228,0.0056299844357722,90,59.40902283697063
15,2.932932932932933,0.0008953803457393,90,59.40902283697063
15,2.942942942942943,-0.0035807566729103,90,59.40902283697063
15,2.952952952952953,-0.0062383270328065,90,59.40902283697063
15,2.962962962962963,-0.0075658076719536,90,59.40902283697063
15,2.972972972972973,-0.0238908163607724,90,59.40902283697063
15,2.982982982982983,-0.0392870822776873,90,59.40902283697063
15,2.992992992992993,-0.0539266766466921,90,59.40902283697063
15,3.003003003003003,-0.0668593112816393,90,59.40902283697063
15,3.013013013013013,-0.1048746584154302,90,59.40902283697063
15,3.023023023023023,-0.1351441187446618,90,59.40902283697063
15,3.033033033033033,-0.1678134808407912,90,59.40902283697063
15,3.043043043043043,-0.2039254542899421,90,59.40902283697063
15,3.053053053053053,-0.2538863921373445,90,59.40902283697063
15,3.063063063063063,-0.2961713658652982,90,59.40902283697063
15,3.073073073073073,-0.3437849585283485,90,59.40902283697063
15,3.083083083083083,-0.3988090501251852,90,59.40902283697063
15,3.093093093093093,-0.4399541467962905,90,59.40902283697063
15,3.103103103103103,-0.4874802763078585,90,59.40902283697063
15,3.113113113113113,-0.5471415032026717,90,59.40902283697063
15,3.123123123123123,-0.5930752539733248,90,59.40902283697063
15,3.133133133133133,-0.6336395312880331,90,59.40902283697063
15,3.143143143143143,-0.6818630552253185,90,59.40902283697063
15,3.153153153153153,-0.7143549069234345,90,59.40902283697063
15,3.163163163163163,-0.7332864342791198,90,59.40902283697063
15,3.173173173173173,-0.7629166492453687,90,59.40902283697063
15,3.183183183183183,-0.7778514399353895,90,59.40902283697063
15,3.193193193193193,-0.775441445650785,90,59.40902283697063
15,3.203203203203203,-0.778718066260338,90,59.40902283697063
15,3.2132132132132134,-0.7659934999680892,90,59.40902283697063
15,3.2232232232232234,-0.7410160914851336,90,59.40902283697063
15,3.2332332332332334,-0.7210762489344077,90,59.40902283697063
15,3.2432432432432434,-0.6636069617928086,90,59.40902283697063
15,3.253253253253253,-0.6194968554833431,90,59.40902283697063
15,3.2632632632632634,-0.5613357713677877,90,59.40902283697063
15,3.273273273273273,-0.4997661234036221,90,59.40902283697063
15,3.2832832832832834,-0.4281293735415501,90,59.40902283697063
15,3.293293293293293,-0.3470011610337754,90,59.40902283697063
15,3.3033033033033035,-0.264822469603018,90,59.40902283697063
15,3.313313313313313,-0.184031423982531,90,59.40902283697063
15,3.3233233233233235,-0.0966561114505125,90,59.40902283697063
15,3.333333333333333,0.0075718037234249,90,59.40902283697063
15,3.3433433433433435,0.0923007133358971,90,59.40902283697063
15,3.353353353353353,0.1783170445381423,90,59.40902283697063
15,3.3633633633633635,0.2584209110962611,90,59.40902283697063
15,3.373373373373373,0.3561210646514922,90,59.40902283697063
15,3.3833833833833835,0.4303241482396759,90,59.40902283697063
15,3.393393393393393,0.4997546694874375,90,59.40902283697063
15,3.4034034034034035,0.5655790232370437,90,59.40902283697063
15,3.413413413413413,0.6171249691235744,90,59.40902283697063
15,3.4234234234234235,0.6750978749867889,90,59.40902283697063
15,3.433433433433433,0.7071587584232757,90,59.40902283697063
15,3.443443443443444,0.7371395030596893,90,59.40902283697063
15,3.4534534534534536,0.7647391284104015,90,59.40902283697063
15,3.463463463463464,0.7737173459143494,90,59.40902283697063
15,3.4734734734734736,0.7810474534538449,90,59.40902283697063
15,3.483483483483484,0.7753436900416201,90,59.40902283697063
15,3.4934934934934936,0.7560088613518724,90,59.40902283697063
15,3.503503503503504,0.7339265028013857,90,59.40902283697063
15,3.5135135135135136,0.7092443105187002,90,59.40902283697063
15,3.523523523523524,0.682389566821235,90,59.40902283697063
15,3.5335335335335336,0.6398229885997396,90,59.40902283697063
15,3.543543543543544,0.5980113515185332,90,59.40902283697063
15,3.5535535535535536,0.5389609808832306,90,59.40902283697063
15,3.563563563563564,0.4903214912522461,90,59.40902283697063
15,3.5735735735735736,0.4375150269754843,90,59.40902283697063
15,3.583583583583584,0.3907827285350616,90,59.40902283697063
15,3.5935935935935936,0.3378719851749718,90,59.40902283697063
15,3.603603603603604,0.2843863195407408,90,59.40902283697063
15,3.6136136136136137,0.2385157447955627,90,59.40902283697063
15,3.623623623623624,0.2032013632239395,90,59.40902283697063
15,3.6336336336336337,0.1613394117825105,90,59.40902283697063
15,3.643643643643644,0.1363200313505382,90,59.40902283697063
15,3.6536536536536537,0.0972068747645712,90,59.40902283697063
15,3.663663663663664,0.075211412244129,90,59.40902283697063
15,3.6736736736736737,0.0497280024773621,90,59.40902283697063
15,3.683683683683684,0.0298123924193241,90,59.40902283697063
15,3.6936936936936937,0.0230471573230454,90,59.40902283697063
15,3.703703703703704,0.0209042533880777,90,59.40902283697063
15,3.7137137137137137,0.0060223744681227,90,59.40902283697063
15,3.723723723723724,-0.0005824389675046,90,59.40902283697063
15,3.7337337337337337,0.0056174607435313,90,59.40902283697063
15,3.743743743743744,-0.0031310027296842,90,59.40902283697063
15,3.7537537537537538,-0.0042346612714904,90,59.40902283697063
15,3.763763763763764,0.0007726231474651,90,59.40902283697063
15,3.7737737737737738,0.000565516324315,90,59.40902283697063
15,3.783783783783784,-0.0054928412598237,90,59.40902283697063
15,3.793793793793794,-0.0091380169978497,90,59.40902283697063
15,3.803803803803804,-0.0179570779957897,90,59.40902283697063
15,3.813813813813814,-0.0295859674443124,90,59.40902283697063
15,3.823823823823824,-0.046109304263627,90,59.40902283697063
15,3.833833833833834,-0.0646046015299264,90,59.40902283697063
15,3.843843843843844,-0.0867578008501939,90,59.40902283697063
15,3.853853853853854,-0.1295681416595973,90,59.40902283697063
15,3.863863863863864,-0.1635675634615886,90,59.40902283697063
15,3.873873873873874,-0.1954265038896195,90,59.40902283697063
15,3.883883883883884,-0.2397967165990187,90,59.40902283697063
15,3.893893893893894,-0.2739031125886465,90,59.40902283697063
15,3.903903903903904,-0.3359752449796747,90,59.40902283697063
15,3.913913913913914,-0.379627557488154,90,59.40902283697063
15,3.923923923923924,-0.4209442095207682,90,59.40902283697063
15,3.933933933933934,-0.4828323872059062,90,59.40902283697063
15,3.943943943943944,-0.5274222328548849,90,59.40902283697063
15,3.953953953953954,-0.5742387877146851,90,59.40902283697063
15,3.963963963963964,-0.6210400673325266,90,59.40902283697063
15,3.973973973973974,-0.6595823666069031,90,59.40902283697063
15,3.983983983983984,-0.6982750998943515,90,59.40902283697063
15,3.993993993993994,-0.7348373780089797,90,59.40902283697063
15,4.004004004004004,-0.7590143826741145,90,59.40902283697063
15,4.014014014014014,-0.7682332209247572,90,59.40902283697063
15,4.024024024024024,-0.7841903430803141,90,59.40902283697063
15,4.034034034034034,-0.7742853194164029,90,59.40902283697063
15,4.044044044044044,-0.7730354525486623,90,59.40902283697063
15,4.054054054054054,-0.7460540827549481,90,59.40902283697063
15,4.064064064064064,-0.7191334390728412,90,59.40902283697063
15,4.074074074074074,-0.6787685649970802,90,59.40902283697063
15,4.084084084084084,-0.6306604166586299,90,59.40902283697063
15,4.094094094094094,-0.5773486636028204,90,59.40902283697063
15,4.104104104104104,-0.5135947832947669,90,59.40902283697063
15,4.114114114114114,-0.4450879082380428,90,59.40902283697063
15,4.124124124124124,-0.3766096507132052,90,59.40902283697063
15,4.134134134134134,-0.2929136156219172,90,59.40902283697063
15,4.144144144144144,-0.2021090068836305,90,59.40902283697063
15,4.1541541541541545,-0.1089815143094357,90,59.40902283697063
15,4.1641641641641645,-0.0122205610727029,90,59.40902283697063
15,4.174174174174175,0.0708416953461389,90,59.40902283697063
15,4.1841841841841845,0.153103196954773,90,59.40902283697063
15,4.1941941941941945,0.2540850293496187,90,59.40902283697063
15,4.2042042042042045,0.3287187837706751,90,59.40902283697063
15,4.214214214214215,0.4013461959504246,90,59.40902283697063
15,4.2242242242242245,0.4755907480692541,90,59.40902283697063
15,4.2342342342342345,0.5495743066321925,90,59.40902283697063
15,4.2442442442442445,0.6043151646766148,90,59.40902283697063
15,4.254254254254255,0.6552792265694243,90,59.40902283697063
15,4.2642642642642645,0.7009812362800689,90,59.40902283697063
15,4.2742742742742745,0.7326470521244902,90,59.40902283697063
15,4.2842842842842845,0.7561452639395062,90,59.40902283697063
15,4.294294294294295,0.7693674458193144,90,59.40902283697063
15,4.3043043043043046,0.7754728433156967,90,59.40902283697063
15,4.314314314314315,0.7830452732377072,90,59.40902283697063
15,4.324324324324325,0.7619469755455588,90,59.40902283697063
15,4.334334334334335,0.7374532960859592,90,59.40902283697063
15,4.344344344344345,0.7189988895139277,90,59.40902283697063
15,4.354354354354355,0.6713301582573986,90,59.40902283697063
15,4.364364364364365,0.648897939648262,90,59.40902283697063
15,4.374374374374375,0.6072039357486892,90,59.40902283697063
15,4.384384384384385,0.5529927161972477,90,59.40902283697063
15,4.394394394394395,0.5119999885024185,90,59.40902283697063
15,4.404404404404405,0.4593343341017988,90,59.40902283697063
15,4.414414414414415,0.4165801258357106,90,59.40902283697063
15,4.424424424424425,0.35448724793887,90,59.40902283697063
15,4.434434434434435,0.3102826157771257,90,59.40902283697063
15,4.444444444444445,0.2579865096889855,90,59.40902283697063
15,4.454454454454455,0.2214340123815427,90,59.40902283697063
15,4.464464464464465,0.1757029566380499,90,59.40902283697063
15,4.474474474474475,0.1270248423111004,90,59.40902283697063
15,4.484484484484485,0.1049792398132754,90,59.40902283697063
15,4.494494494494495,0.0799772391004148,90,59.40902283697063
15,4.504504504504505,0.0602300956326827,90,59.40902283697063
15,4.514514514514515,0.0377972774199687,90,59.40902283697063
15,4.524524524524525,0.0240971019706842,90,59.40902283697063
15,4.534534534534535,0.0167479456299405,90,59.40902283697063
15,4.544544544544545,0.0117948577471742,90,59.40902283697063
15,4.554554554554555,0.008121215523495,90,59.40902283697063
15,4.564564564564565,-0.0084627688990455,90,59.40902283697063
15,4.574574574574575,-0.0078544945555263,90,59.40902283697063
15,4.584584584584585,0.0057624129564328,90,59.40902283697063
15,4.594594594594595,0.0060809564400971,90,59.40902283697063
15,4.604604604604605,0.0105691652810472,90,59.40902283697063
15,4.614614614614615,0.0015247317811704,90,59.40902283697063
15,4.624624624624625,-0.0139703861008774,90,59.40902283697063
15,4.634634634634635,-0.0190244380643409,90,59.40902283697063
15,4.644644644644645,-0.0306069898346875,90,59.40902283697063
15,4.654654654654655,-0.0453472446158184,90,59.40902283697063
15,4.664664664664665,-0.0649954052059895,90,59.40902283697063
15,4.674674674674675,-0.090202121116748,90,59.40902283697063
15,4.684684684684685,-0.1108976770289424,90,59.40902283697063
15,4.694694694694695,-0.1477943846590506,90,59.40902283697063
15,4.704704704704705,-0.1769117939607407,90,59.40902283697063
15,4.714714714714715,-0.2277996344411469,90,59.40902283697063
15,4.724724724724725,-0.2724053371020301,90,59.40902283697063
15,4.734734734734735,-0.3212066273014144,90,59.40902283697063
15,4.744744744744745,-0.3615129574614406,90,59.40902283697063
15,4.754754754754755,-0.4262619860302401,90,59.40902283697063
15,4.764764764764765,-0.4708452796681601,90,59.40902283697063
15,4.774774774774775,-0.5197844156869491,90,59.40902283697063
15,4.784784784784785,-0.5662748032133805,90,59.40902283697063
15,4.794794794794795,-0.6048284091744841,90,59.40902283697063
15,4.804804804804805,-0.6549078880438668,90,59.40902283697063
15,4.814814814814815,-0.6983598263953354,90,59.40902283697063
15,4.824824824824825,-0.722395956400089,90,59.40902283697063
15,4.834834834834835,-0.7494805493731237,90,59.40902283697063
15,4.844844844844845,-0.7690181500474343,90,59.40902283697063
15,4.854854854854855,-0.778178102049838,90,59.40902283697063
15,4.864864864864865,-0.783171899657227,90,59.40902283697063
15,4.874874874874875,-0.774987702322744,90,59.40902283697063
15,4.884884884884885,-0.7541179821402731,90,59.40902283697063
15,4.894894894894895,-0.7325942474590079,90,59.40902283697063
15,4.904904904904905,-0.6871333754303419,90,59.40902283697063
15,4.914914914914915,-0.653181215348064,90,59.40902283697063
15,4.924924924924925,-0.5867421656833651,90,59.40902283697063
15,4.934934934934935,-0.5312273541651541,90,59.40902283697063
15,4.944944944944945,-0.4661814945637979,90,59.40902283697063
15,4.954954954954955,-0.3842031248825335,90,59.40902283697063
15,4.964964964964965,-0.3122844045812636,90,59.40902283697063
15,4.974974974974975,-0.2167501995070545,90,59.40902283697063
15,4.984984984984985,-0.1301150930007326,90,59.40902283697063
15,4.994994994994995,-0.0463461557768149,90,59.40902283697063
15,5.005005005005005,0.0457800212973064,90,59.40902283697063
15,5.015015015015015,0.141256178983714,90,59.40902283697063
15,5.025025025025025,0.2221510565160754,90,59.40902283697063
15,5.035035035035035,0.3092920548775425,90,59.40902283697063
15,5.045045045045045,0.3872575077656338,90,59.40902283697063
15,5.055055055055055,0.4607203555755849,90,59.40902283697063
15,5.065065065065065,0.5281956063050091,90,59.40902283697063
15,5.075075075075075,0.5973959248200552,90,59.40902283697063
15,5.085085085085085,0.6385842132925826,90,59.40902283697063
15,5.095095095095095,0.6871174776935306,90,59.40902283697063
15,5.105105105105105,0.7267702629774583,90,59.40902283697063
15,5.115115115115115,0.7631406299827784,90,59.40902283697063
15,5.125125125125125,0.7792565354751345,90,59.40902283697063
15,5.135135135135135,0.7785852780246214,90,59.40902283697063
15,5.145145145145145,0.7818833321571791,90,59.40902283697063
15,5.155155155155155,0.7625012069126841,90,59.40902283697063
15,5.165165165165165,0.7442096007299437,90,59.40902283697063
15,5.175175175175175,0.7274162272794983,90,59.40902283697063
15,5.185185185185185,0.696974408693152,90,59.40902283697063
15,5.195195195195195,0.6539798737781788,90,59.40902283697063
15,5.205205205205205,0.6160973415625096,90,59.40902283697063
15,5.215215215215215,0.5706878232628858,90,59.40902283697063
15,5.225225225225225,0.5214279711455017,90,59.40902283697063
15,5.235235235235235,0.473615284615162,90,59.40902283697063
15,5.245245245245245,0.4159279087975392,90,59.40902283697063
15,5.255255255255255,0.3741481911514333,90,59.40902283697063
15,5.265265265265265,0.3150997092051902,90,59.40902283697063
15,5.275275275275275,0.2697254301726811,90,59.40902283697063
15,5.285285285285285,0.2332428907082757,90,59.40902283697063
15,5.295295295295295,0.1886615597382868,90,59.40902283697063
15,5.305305305305305,0.1505827869730523,90,59.40902283697063
15,5.315315315315315,0.1102723220310875,90,59.40902283697063
15,5.325325325325325,0.0857064704420357,90,59.40902283697063
15,5.335335335335335,0.0639151477913018,90,59.40902283697063
15,5.345345345345345,0.0423570932949306,90,59.40902283697063
15,5.355355355355355,0.0282312915623775,90,59.40902283697063
15,5.365365365365365,0.0092352452713029,90,59.40902283697063
15,5.375375375375375,0.0180344670895086,90,59.40902283697063
15,5.385385385385385,0.0004596978161793,90,59.40902283697063
15,5.395395395395395,-0.0022051851200299,90,59.40902283697063
15,5.405405405405405,-0.002299660363304,90,59.40902283697063
15,5.415415415415415,-0.0028652157596267,90,59.40902283697063
15,5.425425425425425,0.0062393311174891,90,59.40902283697063
15,5.435435435435435,-0.0056182954152024,90,59.40902283697063
15,5.445445445445445,0.0011701227764845,90,59.40902283697063
15,5.455455455455455,0.0024820988329941,90,59.40902283697063
15,5.465465465465465,-0.0187230516666338,90,59.40902283697063
15,5.475475475475475,-0.0306365304653217,90,59.40902283697063
15,5.485485485485485,-0.0351983584200492,90,59.40902283697063
15,5.495495495495495,-0.0617945643931374,90,59.40902283697063
15,5.505505505505505,-0.0836510109425135,90,59.40902283697063
15,5.515515515515515,-0.1118347636108852,90,59.40902283697063
15,5.525525525525525,-0.1390836974952353,90,59.40902283697063
15,5.535535535535535,-0.1760014928627258,90,59.40902283697063
15,5.545545545545545,-0.2171275584586856,90,59.40902283697063
15,5.555555555555555,-0.2542447446543135,90,59.40902283697063
15,5.565565565565565,-0.3006723339839541,90,59.40902283697063
15,5.575575575575575,-0.3516562026742812,90,59.40902283697063
15,5.585585585585585,-0.3996377503426395,90,59.40902283697063
15,5.595595595595595,-0.4631352962244261,90,59.40902283697063
15,5.605605605605605,-0.5094997848551484,90,59.40902283697063
15,5.615615615615615,-0.5573856367795775,90,59.40902283697063
15,5.625625625625625,-0.5984670838324642,90,59.40902283697063
15,5.635635635635635,-0.6433649006656492,90,59.40902283697063
15,5.645645645645645,-0.6904238799233662,90,59.40902283697063
15,5.655655655655655,-0.7169970919065162,90,59.40902283697063
15,5.665665665665665,-0.7445547581572522,90,59.40902283697063
15,5.675675675675675,-0.754091589981506,90,59.40902283697063
15,5.685685685685685,-0.7726419686279069,90,59.40902283697063
15,5.695695695695696,-0.7739112088931671,90,59.40902283697063
15,5.7057057057057055,-0.7708153247146167,90,59.40902283697063
15,5.715715715715716,-0.7564977179443502,90,59.40902283697063
15,5.7257257257257255,-0.7305600524187612,90,59.40902283697063
15,5.735735735735736,-0.6978567071040517,90,59.40902283697063
15,5.7457457457457455,-0.6587285857232185,90,59.40902283697063
15,5.755755755755756,-0.6060471918158826,90,59.40902283697063
15,5.7657657657657655,-0.5551235854830704,90,59.40902283697063
15,5.775775775775776,-0.4821606476164865,90,59.40902283697063
15,5.7857857857857855,-0.4091989951277613,90,59.40902283697063
15,5.795795795795796,-0.3334534617317495,90,59.40902283697063
15,5.8058058058058055,-0.2474494795490456,90,59.40902283697063
15,5.815815815815816,-0.1573938940460415,90,59.40902283697063
15,5.8258258258258255,-0.0653621303566483,90,59.40902283697063
15,5.835835835835836,0.0182220272210452,90,59.40902283697063
15,5.8458458458458455,0.1155989507393151,90,59.40902283697063
15,5.855855855855856,0.2045433067024753,90,59.40902283697063
15,5.865865865865866,0.2901169957833266,90,59.40902283697063
15,5.875875875875876,0.3705696537515736,90,59.40902283697063
15,5.885885885885886,0.4433735987828868,90,59.40902283697063
15,5.895895895895896,0.5169307861891658,90,59.40902283697063
15,5.905905905905906,0.5727122828920495,90,59.40902283697063
15,5.915915915915916,0.6365280039914389,90,59.40902283697063
15,5.925925925925926,0.6736309427551614,90,59.40902283697063
15,5.935935935935936,0.7130213758380435,90,59.40902283697063
15,5.945945945945946,0.7483971853361695,90,59.40902283697063
15,5.955955955955956,0.7721137544012867,90,59.40902283697063
15,5.965965965965966,0.7760666440277698,90,59.40902283697063
15,5.975975975975976,0.7795508666847437,90,59.40902283697063
15,5.985985985985986,0.7747129918087775,90,59.40902283697063
15,5.995995995995996,0.75965907561568,90,59.40902283697063
15,6.006006006006006,0.7286700999431797,90,59.40902283697063
15,6.016016016016016,0.7019198072219099,90,59.40902283697063
15,6.026026026026026,0.6620658753641697,90,59.40902283697063
15,6.036036036036036,0.6191447370611125,90,59.40902283697063
15,6.046046046046046,0.5852794269091568,90,59.40902283697063
15,6.056056056056056,0.5340451047585404,90,59.40902283697063
15,6.066066066066066,0.480159201077224,90,59.40902283697063
15,6.076076076076076,0.4320704312920157,90,59.40902283697063
15,6.086086086086086,0.3782348557209398,90,59.40902283697063
15,6.096096096096096,0.3242043739129876,90,59.40902283697063
15,6.106106106106106,0.2722226052731732,90,59.40902283697063
15,6.116116116116116,0.246668069521467,90,59.40902283697063
15,6.126126126126126,0.185773246289256,90,59.40902283697063
15,6.136136136136136,0.1573887138640037,90,59.40902283697063
15,6.146146146146146,0.1197966236140638,90,59.40902283697063
15,6.156156156156156,0.0932980692661995,90,59.40902283697063
15,6.166166166166166,0.0799709405108952,90,59.40902283697063
15,6.176176176176176,0.0588169810795246,90,59.40902283697063
15,6.186186186186186,0.0386020043495586,90,59.40902283697063
15,6.196196196196196,0.0189429751090642,90,59.40902283697063
15,6.206206206206206,0.0118846694494313,90,59.40902283697063
15,6.216216216216216,0.001560536474522,90,59.40902283697063
15,6.226226226226226,0.0045217917991304,90,59.40902283697063
15,6.236236236236236,-0.0029929688471776,90,59.40902283697063
15,6.246246246246246,0.0022148868593178,90,59.40902283697063
15,6.256256256256256,-0.0043232385721139,90,59.40902283697063
15,6.266266266266266,-0.0038779768491697,90,59.40902283697063
15,6.276276276276276,-0.0035557683294186,90,59.40902283697063
15,6.286286286286286,-0.0071620892939995,90,59.40902283697063
15,6.296296296296296,-0.0233641353479597,90,59.40902283697063
15,6.306306306306306,-0.032219187087926,90,59.40902283697063
15,6.316316316316316,-0.0406533115408169,90,59.40902283697063
15,6.326326326326326,-0.0490702325565024,90,59.40902283697063
15,6.336336336336336,-0.0798169513914876,90,59.40902283697063
15,6.346346346346346,-0.0993865207169392,90,59.40902283697063
15,6.356356356356356,-0.1321206323730028,90,59.40902283697063
15,6.366366366366366,-0.1598680150787535,90,59.40902283697063
15,6.376376376376376,-0.2061130333052619,90,59.40902283697063
15,6.386386386386386,-0.2514629828811496,90,59.40902283697063
15,6.396396396396396,-0.3006354892989759,90,59.40902283697063
15,6.406406406406406,-0.3413890629169662,90,59.40902283697063
15,6.416416416416417,-0.4006409166944937,90,59.40902283697063
15,6.426426426426427,-0.4498492171278404,90,59.40902283697063
15,6.436436436436437,-0.5034717109142862,90,59.40902283697063
15,6.446446446446447,-0.5446201433314569,90,59.40902283697063
15,6.456456456456457,-0.5893704556682504,90,59.40902283697063
15,6.466466466466467,-0.6364264259490641,90,59.40902283697063
15,6.476476476476477,-0.6734806012949797,90,59.40902283697063
15,6.486486486486487,-0.7074795179791065,90,59.40902283697063
15,6.496496496496497,-0.7388302368973717,90,59.40902283697063
15,6.506506506506507,-0.7662047102177911,90,59.40902283697063
15,6.516516516516517,-0.7776256151112378,90,59.40902283697063
15,6.526526526526527,-0.7807991318354337,90,59.40902283697063
15,6.536536536536537,-0.7718816329568624,90,59.40902283697063
15,6.546546546546547,-0.7639218316214429,90,59.40902283697063
15,6.556556556556557,-0.7366906275684416,90,59.40902283697063
15,6.566566566566567,-0.7117540549529606,90,59.40902283697063
15,6.576576576576577,-0.6668759846152145,90,59.40902283697063
15,6.586586586586587,-0.615286531292234,90,59.40902283697063
15,6.596596596596597,-0.5597267632473262,90,59.40902283697063
15,6.606606606606607,-0.4979136574501135,90,59.40902283697063
15,6.616616616616617,-0.4122360973709467,90,59.40902283697063
15,6.626626626626627,-0.3506288061391259,90,59.40902283697063
15,6.636636636636637,-0.2636377506308528,90,59.40902283697063
15,6.646646646646647,-0.1795455827186756,90,59.40902283697063
15,6.656656656656657,-0.0913542635829129,90,59.40902283697063
15,6.666666666666667,-0.0008684347820132,90,59.40902283697063
15,6.676676676676677,0.0903674265440882,90,59.40902283697063
15,6.686686686686687,0.1772503444103446,90,59.40902283697063
15,6.696696696696697,0.2685050597936953,90,59.40902283697063
15,6.706706706706707,0.3396870471389553,90,59.40902283697063
15,6.716716716716717,0.4253825029920112,90,59.40902283697063
15,6.726726726726727,0.4953894561806169,90,59.40902283697063
15,6.736736736736737,0.5673359014349422,90,59.40902283697063
15,6.746746746746747,0.6283486521198732,90,59.40902283697063
15,6.756756756756757,0.669722641323424,90,59.40902283697063
15,6.766766766766767,0.7112424479353296,90,59.40902283697063
15,6.776776776776777,0.7420094908327326,90,59.40902283697063
15,6.786786786786787,0.7621744783774398,90,59.40902283697063
15,6.796796796796797,0.7803458055023191,90,59.40902283697063
15,6.806806806806807,0.7687859294535081,90,59.40902283697063
15,6.816816816816817,0.7739586834611513,90,59.40902283697063
15,6.826826826826827,0.7688934730965418,90,59.40902283697063
15,6.836836836836837,0.7360776392993215,90,59.40902283697063
15,6.846846846846847,0.7042416241956377,90,59.40902283697063
15,6.856856856856857,0.6716238405442017,90,59.40902283697063
15,6.866866866866867,0.634232130024547,90,59.40902283697063
15,6.876876876876877,0.6018489186058313,90,59.40902283697063
15,6.886886886886887,0.5381697622652002,90,59.40902283697063
15,6.896896896896897,0.5008714557168382,90,59.40902283697063
15,6.906906906906907,0.449613630812268,90,59.40902283697063
15,6.916916916916917,0.3977512709827069,90,59.40902283697063
15,6.926926926926927,0.3458580826116758,90,59.40902283697063
15,6.936936936936937,0.2862096599798875,90,59.40902283697063
15,6.946946946946947,0.2396775363548552,90,59.40902283697063
15,6.956956956956957,0.2031648945080076,90,59.40902283697063
15,6.966966966966967,0.1705384454377789,90,59.40902283697063
15,6.976976976976977,0.1260257879201936,90,59.40902283697063
15,6.986986986986987,0.1026337487713658,90,59.40902283697063
15,6.996996996996997,0.0737066302479995,90,59.40902283697063
15,7.007007007007007,0.0514444030610401,90,59.40902283697063
15,7.017017017017017,0.0364830150783213,90,59.40902283697063
15,7.027027027027027,0.0277978206061994,90,59.40902283697063
15,7.037037037037037,0.0131525794709759,90,59.40902283697063
15,7.047047047047047,-0.0010688529332516,90,59.40902283697063
15,7.057057057057057,-0.0003189186378648,90,59.40902283697063
15,7.067067067067067,0.0008786762319027,90,59.40902283697063
15,7.077077077077077,-0.0030267219184778,90,59.40902283697063
15,7.087087087087087,-0.0023240209636167,90,59.40902283697063
15,7.097097097097097,-0.0048609747764106,90,59.40902283697063
15,7.107107107107107,-0.0026048847493426,90,59.40902283697063
15,7.117117117117117,-0.0054030455424547,90,59.40902283697063
15,7.127127127127127,-0.0057824436307818,90,59.40902283697063
15,7.137137137137137,-0.0209877313654813,90,59.40902283697063
15,7.147147147147147,-0.0309378202410205,90,59.40902283697063
15,7.157157157157157,-0.0509232550777326,90,59.40902283697063
15,7.167167167167167,-0.0673376436893634,90,59.40902283697063
15,7.177177177177177,-0.089029213435399,90,59.40902283697063
15,7.187187187187187,-0.116412733325494,90,59.40902283697063
15,7.197197197197197,-0.151988964463248,90,59.40902283697063
15,7.207207207207207,-0.1994639012631902,90,59.40902283697063
15,7.217217217217217,-0.2357454701309894,90,59.40902283697063
15,7.227227227227227,-0.278224044374723,90,59.40902283697063
15,7.237237237237237,-0.3290308057665739,90,59.40902283697063
15,7.247247247247247,-0.386942963843864,90,59.40902283697063
15,7.257257257257257,-0.430337550880232,90,59.40902283697063
15,7.267267267267267,-0.4833139710364854,90,59.40902283697063
15,7.277277277277277,-0.5368548505918112,90,59.40902283697063
15,7.287287287287287,-0.5802457604646165,90,59.40902283697063
15,7.297297297297297,-0.6262305062194576,90,59.40902283697063
15,7.307307307307307,-0.671079205158339,90,59.40902283697063
15,7.317317317317317,-0.6959499965777866,90,59.40902283697063
15,7.327327327327327,-0.7295082057815026,90,59.40902283697063
15,7.337337337337337,-0.7596426200154232,90,59.40902283697063
15,7.347347347347347,-0.7747178973497113,90,59.40902283697063
15,7.357357357357357,-0.7770203608792088,90,59.40902283697063
15,7.367367367367367,-0.7817827186390984,90,59.40902283697063
15,7.377377377377377,-0.761898633014675,90,59.40902283697063
15,7.387387387387387,-0.7462651108943478,90,59.40902283697063
15,7.397397397397397,-0.7190492066487417,90,59.40902283697063
15,7.407407407407407,-0.69151335826986,90,59.40902283697063
15,7.4174174174174174,-0.6332973453055403,90,59.40902283697063
15,7.4274274274274275,-0.5759987247253017,90,59.40902283697063
15,7.437437437437437,-0.5218393557974633,90,59.40902283697063
15,7.447447447447447,-0.4493580788696807,90,59.40902283697063
15,7.4574574574574575,-0.3686811671839362,90,59.40902283697063
15,7.4674674674674675,-0.3011118344010462,90,59.40902283697063
15,7.477477477477477,-0.2002373851972022,90,59.40902283697063
15,7.487487487487487,-0.1104530570224315,90,59.40902283697063
15,7.4974974974974975,-0.0249150148871983,90,59.40902283697063
15,7.5075075075075075,0.0713980339909658,90,59.40902283697063
15,7.517517517517517,0.1586182765961211,90,59.40902283697063
15,7.527527527527527,0.2435351169177894,90,59.40902283697063
15,7.5375375375375375,0.32957119832532,90,59.40902283697063
15,7.5475475475475475,0.4040611041916592,90,59.40902283697063
15,7.557557557557557,0.4844911055899815,90,59.40902283697063
15,7.567567567567567,0.5568631572514879,90,59.40902283697063
15,7.5775775775775776,0.6036846235939899,90,59.40902283697063
15,7.587587587587588,0.6603432759050323,90,59.40902283697063
15,7.597597597597598,0.6994326242874552,90,59.40902283697063
15,7.607607607607608,0.7417962097882652,90,59.40902283697063
15,7.617617617617618,0.7555537296369975,90,59.40902283697063
15,7.627627627627628,0.7754349553409166,90,59.40902283697063
15,7.637637637637638,0.7754352081511495,90,59.40902283697063
15,7.647647647647648,0.7710265442751546,90,59.40902283697063
15,7.657657657657658,0.753754050529692,90,59.40902283697063
15,7.667667667667668,0.7379075506635913,90,59.40902283697063
15,7.677677677677678,0.7229972165180736,90,59.40902283697063
15,7.687687687687688,0.6796462417447725,90,59.40902283697063
15,7.697697697697698,0.6455536346520863,90,59.40902283697063
15,7.707707707707708,0.6155439182150055,90,59.40902283697063
15,7.717717717717718,0.5529097125567621,90,59.40902283697063
15,7.727727727727728,0.508363127070985,90,59.40902283697063
15,7.737737737737738,0.4578730685669057,90,59.40902283697063
15,7.747747747747748,0.4057107532504825,90,59.40902283697063
15,7.757757757757758,0.3519371410086697,90,59.40902283697063
15,7.767767767767768,0.3020752663090308,90,59.40902283697063
15,7.777777777777778,0.2531080450546686,90,59.40902283697063
15,7.787787787787788,0.2155242250873613,90,59.40902283697063
15,7.797797797797798,0.1763452969534039,90,59.40902283697063
15,7.807807807807808,0.1396276756140641,90,59.40902283697063
15,7.817817817817818,0.1098596957683937,90,59.40902283697063
15,7.827827827827828,0.0809534873790552,90,59.40902283697063
15,7.837837837837838,0.0594852917223807,90,59.40902283697063
15,7.847847847847848,0.040707800661054,90,59.40902283697063
15,7.857857857857858,0.0317897432331807,90,59.40902283697063
15,7.867867867867868,0.0142828278267731,90,59.40902283697063
15,7.877877877877878,0.0076210195220261,90,59.40902283697063
15,7.887887887887888,0.0062547346916529,90,59.40902283697063
15,7.897897897897898,-0.0026626669042742,90,59.40902283697063
15,7.907907907907908,0.0039674225378342,90,59.40902283697063
15,7.917917917917918,0.002795232328023,90,59.40902283697063
15,7.927927927927928,0.0016186275378206,90,59.40902283697063
15,7.937937937937938,0.0020659233803333,90,59.40902283697063
15,7.947947947947948,-0.0113288269878653,90,59.40902283697063
15,7.957957957957958,-0.0046892747187876,90,59.40902283697063
15,7.967967967967968,-0.0158449345806144,90,59.40902283697063
15,7.977977977977978,-0.0307013867212985,90,59.40902283697063
15,7.987987987987988,-0.0458129885381736,90,59.40902283697063
15,7.997997997997998,-0.0606272972388491,90,59.40902283697063
15,8.008008008008009,-0.0835826905214825,90,59.40902283697063
15,8.018018018018019,-0.1142045036853084,90,59.40902283697063
15,8.028028028028029,-0.1431842583143521,90,59.40902283697063
15,8.038038038038039,-0.1814836300135584,90,59.40902283697063
15,8.048048048048049,-0.23410641828694,90,59.40902283697063
15,8.058058058058059,-0.2661204664246737,90,59.40902283697063
15,8.068068068068069,-0.3082328177035531,90,59.40902283697063
15,8.078078078078079,-0.3655661481290312,90,59.40902283697063
15,8.088088088088089,-0.4168994398190169,90,59.40902283697063
15,8.098098098098099,-0.4666453328975686,90,59.40902283697063
15,8.108108108108109,-0.5259135319330295,90,59.40902283697063
15,8.118118118118119,-0.5701506630318801,90,59.40902283697063
15,8.128128128128129,-0.6222530421908559,90,59.40902283697063
15,8.138138138138139,-0.6566290625877937,90,59.40902283697063
15,8.148148148148149,-0.6917458048854704,90,59.40902283697063
15,8.158158158158159,-0.7298529787364838,90,59.40902283697063
15,8.168168168168169,-0.7468144965258899,90,59.40902283697063
15,8.178178178178179,-0.7630800746122459,90,59.40902283697063
15,8.188188188188189,-0.7746149217352383,90,59.40902283697063
15,8.198198198198199,-0.7716179432577068,90,59.40902283697063
15,8.208208208208209,-0.7659089199485017,90,59.40902283697063
15,8.218218218218219,-0.7490791726281207,90,59.40902283697063
15,8.228228228228229,-0.7249196728871631,90,59.40902283697063
15,8.238238238238239,-0.6960446407306243,90,59.40902283697063
15,8.248248248248249,-0.6490733023170607,90,59.40902283697063
15,8.258258258258259,-0.5920359735499482,90,59.40902283697063
15,8.268268268268269,-0.5317821669010756,90,59.40902283697063
15,8.278278278278279,-0.4669322331695945,90,59.40902283697063
15,8.288288288288289,-0.3860735788839691,90,59.40902283697063
15,8.298298298298299,-0.3065824931350473,90,59.40902283697063
15,8.308308308308309,-0.223964093051345,90,59.40902283697063
15,8.318318318318319,-0.139183609748326,90,59.40902283697063
15,8.328328328328329,-0.0413223078745665,90,59.40902283697063
15,8.338338338338339,0.0418597481613103,90,59.40902283697063
15,8.348348348348349,0.1362058796488359,90,59.40902283697063
15,8.358358358358359,0.2316863870680463,90,59.40902283697063
15,8.368368368368369,0.3044734867130348,90,59.40902283697063
15,8.378378378378379,0.3894472612200041,90,59.40902283697063
15,8.388388388388389,0.4622083766145473,90,59.40902283697063
15,8.398398398398399,0.5338140773739534,90,59.40902283697063
15,8.408408408408409,0.5871491785058935,90,59.40902283697063
15,8.418418418418419,0.6398644842119742,90,59.40902283697063
15,8.428428428428429,0.6908179882005079,90,59.40902283697063
15,8.438438438438439,0.7211276144329387,90,59.40902283697063
15,8.448448448448449,0.7515465033221026,90,59.40902283697063
15,8.458458458458459,0.7615099264945262,90,59.40902283697063
15,8.468468468468469,0.7867042474841788,90,59.40902283697063
15,8.478478478478479,0.777338368286818,90,59.40902283697063
15,8.488488488488489,0.7628172619381676,90,59.40902283697063
15,8.498498498498499,0.7523435446280949,90,59.40902283697063
15,8.508508508508509,0.7265681291128232,90,59.40902283697063
15,8.518518518518519,0.6939539208006296,90,59.40902283697063
15,8.528528528528529,0.6537529861971987,90,59.40902283697063
15,8.538538538538539,0.6080224720334941,90,59.40902283697063
15,8.548548548548549,0.5650698570490474,90,59.40902283697063
15,8.558558558558559,0.5158822975224926,90,59.40902283697063
15,8.568568568568569,0.4642354236026331,90,59.40902283697063
15,8.578578578578579,0.4220503780542203,90,59.40902283697063
15,8.588588588588589,0.3652629431517983,90,59.40902283697063
15,8.598598598598599,0.3122636119348277,90,59.40902283697063
15,8.608608608608609,0.2748859972687115,90,59.40902283697063
15,8.618618618618619,0.232191986548909,90,59.40902283697063
15,8.62862862862863,0.1944792055577284,90,59.40902283697063
15,8.63863863863864,0.1481105584209336,90,59.40902283697063
15,8.64864864864865,0.1119726807874018,90,59.40902283697063
15,8.65865865865866,0.0854522360981266,90,59.40902283697063
15,8.66866866866867,0.0643326155925154,90,59.40902283697063
15,8.67867867867868,0.0434652192247459,90,59.40902283697063
15,8.68868868868869,0.0311564855843896,90,59.40902283697063
15,8.6986986986987,0.0177075646155516,90,59.40902283697063
15,8.70870870870871,0.0160877706764465,90,59.40902283697063
15,8.71871871871872,0.0033457263140924,90,59.40902283697063
15,8.72872872872873,0.0018708975017784,90,59.40902283697063
15,8.73873873873874,0.0029378438731375,90,59.40902283697063
15,8.74874874874875,-0.0035140908553238,90,59.40902283697063
15,8.75875875875876,-4.622953172355682e-05,90,59.40902283697063
15,8.76876876876877,0.0058753869198289,90,59.40902283697063
15,8.77877877877878,-0.0041784583284715,90,59.40902283697063
15,8.78878878878879,-0.0072129303283361,90,59.40902283697063
15,8.7987987987988,-0.0151985806711092,90,59.40902283697063
15,8.80880880880881,-0.0231672273318368,90,59.40902283697063
15,8.81881881881882,-0.0380808538751933,90,59.40902283697063
15,8.82882882882883,-0.0537339549877681,90,59.40902283697063
15,8.83883883883884,-0.0839547109434938,90,59.40902283697063
15,8.84884884884885,-0.1072115185094596,90,59.40902283697063
15,8.85885885885886,-0.1403080729122449,90,59.40902283697063
15,8.86886886886887,-0.1741666499776539,90,59.40902283697063
15,8.87887887887888,-0.2092570976187708,90,59.40902283697063
15,8.88888888888889,-0.258747756944868,90,59.40902283697063
15,8.8988988988989,-0.3060078746628426,90,59.40902283697063
15,8.90890890890891,-0.3492896411940874,90,59.40902283697063
15,8.91891891891892,-0.3955910182082993,90,59.40902283697063
15,8.92892892892893,-0.4546452964996446,90,59.40902283697063
15,8.93893893893894,-0.5019119039747161,90,59.40902283697063
15,8.94894894894895,-0.5565784654636943,90,59.40902283697063
15,8.95895895895896,-0.5989024472233404,90,59.40902283697063
15,8.96896896896897,-0.6419060123591257,90,59.40902283697063
15,8.97897897897898,-0.6911076262314269,90,59.40902283697063
15,8.98898898898899,-0.7172869450142861,90,59.40902283697063
15,8.998998998999,-0.749924771560784,90,59.40902283697063
15,9.00900900900901,-0.759034460129997,90,59.40902283697063
15,9.01901901901902,-0.7776449358787406,90,59.40902283697063
15,9.02902902902903,-0.7810903142624951,90,59.40902283697063
15,9.03903903903904,-0.7773555585132317,90,59.40902283697063
15,9.04904904904905,-0.7620778739461274,90,59.40902283697063
15,9.05905905905906,-0.7372823426694589,90,59.40902283697063
15,9.06906906906907,-0.7099280698893266,90,59.40902283697063
15,9.07907907907908,-0.6559763063652424,90,59.40902283697063
15,9.08908908908909,-0.6147806920324066,90,59.40902283697063
15,9.0990990990991,-0.55018025356314,90,59.40902283697063
15,9.10910910910911,-0.4696124127228102,90,59.40902283697063
15,9.11911911911912,-0.4033978596119223,90,59.40902283697063
15,9.12912912912913,-0.3260734577996029,90,59.40902283697063
15,9.13913913913914,-0.2328721282431616,90,59.40902283697063
15,9.14914914914915,-0.1576904771136564,90,59.40902283697063
15,9.15915915915916,-0.0619903613955333,90,59.40902283697063
15,9.16916916916917,0.0251309265159821,90,59.40902283697063
15,9.17917917917918,0.1086895862408611,90,59.40902283697063
15,9.18918918918919,0.2053999488145288,90,59.40902283697063
15,9.1991991991992,0.2911450695969311,90,59.40902283697063
15,9.20920920920921,0.3646959137329983,90,59.40902283697063
15,9.21921921921922,0.4379486302075774,90,59.40902283697063
15,9.22922922922923,0.5276340098934654,90,59.40902283697063
15,9.23923923923924,0.5858444750911239,90,59.40902283697063
15,9.24924924924925,0.6246044629298177,90,59.40902283697063
15,9.25925925925926,0.6808039384140145,90,59.40902283697063
15,9.26926926926927,0.7157863973990649,90,59.40902283697063
15,9.27927927927928,0.7485414568473513,90,59.40902283697063
15,9.28928928928929,0.7650871095305414,90,59.40902283697063
15,9.2992992992993,0.7751519642180954,90,59.40902283697063
15,9.30930930930931,0.7827509352520529,90,59.40902283697063
15,9.31931931931932,0.7740495824718712,90,59.40902283697063
15,9.32932932932933,0.7555394178304086,90,59.40902283697063
15,9.33933933933934,0.7309696079324033,90,59.40902283697063
15,9.34934934934935,0.6999883381145429,90,59.40902283697063
15,9.35935935935936,0.6653775540819357,90,59.40902283697063
15,9.36936936936937,0.624356033183917,90,59.40902283697063
15,9.37937937937938,0.5753290943432914,90,59.40902283697063
15,9.38938938938939,0.5303138849289694,90,59.40902283697063
15,9.3993993993994,0.483992678056743,90,59.40902283697063
15,9.40940940940941,0.4364375814470827,90,59.40902283697063
15,9.41941941941942,0.3827568514850503,90,59.40902283697063
15,9.42942942942943,0.3339732080837064,90,59.40902283697063
15,9.43943943943944,0.2879008068598345,90,59.40902283697063
15,9.44944944944945,0.2321836914614969,90,59.40902283697063
15,9.45945945945946,0.1923226017009928,90,59.40902283697063
15,9.46946946946947,0.1540319889467132,90,59.40902283697063
15,9.47947947947948,0.1221417412362778,90,59.40902283697063
15,9.48948948948949,0.0874412132770845,90,59.40902283697063
15,9.4994994994995,0.0737803490579732,90,59.40902283697063
15,9.50950950950951,0.0502209778396506,90,59.40902283697063
15,9.51951951951952,0.0319284377332171,90,59.40902283697063
15,9.52952952952953,0.0231743645093707,90,59.40902283697063
15,9.53953953953954,0.0115184440418475,90,59.40902283697063
15,9.54954954954955,0.0131792888661318,90,59.40902283697063
15,9.55955955955956,0.0010997115362453,90,59.40902283697063
15,9.56956956956957,0.0011861121024676,90,59.40902283697063
15,9.57957957957958,0.0076989898763176,90,59.40902283697063
15,9.58958958958959,0.0036792704321335,90,59.40902283697063
15,9.5995995995996,-0.0004518126109026,90,59.40902283697063
15,9.60960960960961,-0.0056285168041191,90,59.40902283697063
15,9.61961961961962,-0.0045255576964426,90,59.40902283697063
15,9.62962962962963,-0.0182829289264408,90,59.40902283697063
15,9.63963963963964,-0.0208133373167194,90,59.40902283697063
15,9.64964964964965,-0.0324880238978895,90,59.40902283697063
15,9.65965965965966,-0.0521980873166891,90,59.40902283697063
15,9.66966966966967,-0.0709559430679725,90,59.40902283697063
15,9.67967967967968,-0.0909421632641291,90,59.40902283697063
15,9.68968968968969,-0.1341209085265887,90,59.40902283697063
15,9.6996996996997,-0.1679662714814053,90,59.40902283697063
15,9.70970970970971,-0.210617982904285,90,59.40902283697063
15,9.71971971971972,-0.2372307808439956,90,59.40902283697063
15,9.72972972972973,-0.295790963282485,90,59.40902283697063
15,9.73973973973974,-0.3374948587442308,90,59.40902283697063
15,9.74974974974975,-0.3976086485298702,90,59.40902283697063
15,9.75975975975976,-0.4417269490124985,90,59.40902283697063
15,9.76976976976977,-0.495200819771954,90,59.40902283697063
15,9.77977977977978,-0.543423226552596,90,59.40902283697063
15,9.78978978978979,-0.5876881351225495,90,59.40902283697063
15,9.7997997997998,-0.6266761261251774,90,59.40902283697063
15,9.80980980980981,-0.6695226294519032,90,59.40902283697063
15,9.81981981981982,-0.7140458148425182,90,59.40902283697063
15,9.82982982982983,-0.7336802575627015,90,59.40902283697063
15,9.83983983983984,-0.7591348207447745,90,59.40902283697063
15,9.84984984984985,-0.7768001372334127,90,59.40902283697063
15,9.85985985985986,-0.7814956124873331,90,59.40902283697063
15,9.86986986986987,-0.7776646126420819,90,59.40902283697063
15,9.87987987987988,-0.7666054127147692,90,59.40902283697063
15,9.88988988988989,-0.7382077394586137,90,59.40902283697063
15,9.8998998998999,-0.7079951121158221,90,59.40902283697063
15,9.90990990990991,-0.6800579289914789,90,59.40902283697063
15,9.91991991991992,-0.6237190899933385,90,59.40902283697063
15,9.92992992992993,-0.564813294196881,90,59.40902283697063
15,9.93993993993994,-0.5032268475270578,90,59.40902283697063
15,9.94994994994995,-0.4254842381026972,90,59.40902283697063
15,9.95995995995996,-0.3530583363000905,90,59.40902283697063
15,9.96996996996997,-0.2660899730644583,90,59.40902283697063
15,9.97997997997998,-0.1809425106710202,90,59.40902283697063
15,9.98998998998999,-0.0876453957372387,90,59.40902283697063
15,10.0,-0.008844023004166,90,59.40902283697063
