Subject_ID,Time,PPG,HR,HRV
7,0.0,-0.008967531780178,98,27.553255121072983
7,0.01001001001001,0.0884987421165443,98,27.553255121072983
7,0.02002002002002,0.1806872004719498,98,27.553255121072983
7,0.03003003003003,0.2677786025559763,98,27.553255121072983
7,0.04004004004004,0.3401268887938182,98,27.553255121072983
7,0.05005005005005,0.4304805005881463,98,27.553255121072983
7,0.06006006006006,0.5045825063185245,98,27.553255121072983
7,0.07007007007007,0.5678360856861173,98,27.553255121072983
7,0.08008008008008,0.6249332500948259,98,27.553255121072983
7,0.09009009009009,0.6715900334259465,98,27.553255121072983
7,0.1001001001001,0.7064716967687248,98,27.553255121072983
7,0.1101101101101101,0.7529562445474323,98,27.553255121072983
7,0.1201201201201201,0.7655599702068224,98,27.553255121072983
7,0.1301301301301301,0.7746091119355851,98,27.553255121072983
7,0.1401401401401401,0.7787077287059366,98,27.553255121072983
7,0.1501501501501501,0.7806410723163569,98,27.553255121072983
7,0.1601601601601601,0.7535208677813705,98,27.553255121072983
7,0.1701701701701701,0.7409493746481004,98,27.553255121072983
7,0.1801801801801801,0.7071849173337675,98,27.553255121072983
7,0.1901901901901901,0.6707332185970278,98,27.553255121072983
7,0.2002002002002001,0.6322593545729602,98,27.553255121072983
7,0.2102102102102102,0.5929267828860096,98,27.553255121072983
7,0.2202202202202202,0.55003754190316,98,27.553255121072983
7,0.2302302302302302,0.4914738383252717,98,27.553255121072983
7,0.2402402402402402,0.4477623928973123,98,27.553255121072983
7,0.2502502502502503,0.3923204377104816,98,27.553255121072983
7,0.2602602602602603,0.3408284383883178,98,27.553255121072983
7,0.2702702702702703,0.2968222263014325,98,27.553255121072983
7,0.2802802802802803,0.2446121702236007,98,27.553255121072983
7,0.2902902902902903,0.2001845252851412,98,27.553255121072983
7,0.3003003003003003,0.1759442883541848,98,27.553255121072983
7,0.3103103103103103,0.1262228688670353,98,27.553255121072983
7,0.3203203203203203,0.097598473114551,98,27.553255121072983
7,0.3303303303303303,0.0762731210951782,98,27.553255121072983
7,0.3403403403403403,0.0585772914998926,98,27.553255121072983
7,0.3503503503503503,0.032186175495407,98,27.553255121072983
7,0.3603603603603603,0.0254289086366252,98,27.553255121072983
7,0.3703703703703703,0.006555886243479,98,27.553255121072983
7,0.3803803803803803,0.0020546179679069,98,27.553255121072983
7,0.3903903903903903,0.0077293768677936,98,27.553255121072983
7,0.4004004004004003,0.0026254491500353,98,27.553255121072983
7,0.4104104104104104,0.00387410797542,98,27.553255121072983
7,0.4204204204204204,0.0003224793544526,98,27.553255121072983
7,0.4304304304304304,0.0097059284199084,98,27.553255121072983
7,0.4404404404404404,0.0010755742762816,98,27.553255121072983
7,0.4504504504504504,-0.0070184479806127,98,27.553255121072983
7,0.4604604604604604,-0.015320325182571,98,27.553255121072983
7,0.4704704704704704,-0.018204774950118,98,27.553255121072983
7,0.4804804804804805,-0.0369024787221595,98,27.553255121072983
7,0.4904904904904905,-0.0529644201085409,98,27.553255121072983
7,0.5005005005005005,-0.0763696423566721,98,27.553255121072983
7,0.5105105105105106,-0.0928120793594646,98,27.553255121072983
7,0.5205205205205206,-0.1290865961204658,98,27.553255121072983
7,0.5305305305305306,-0.1574868239307806,98,27.553255121072983
7,0.5405405405405406,-0.1933683078325815,98,27.553255121072983
7,0.5505505505505506,-0.2309463584355174,98,27.553255121072983
7,0.5605605605605606,-0.2801944546223471,98,27.553255121072983
7,0.5705705705705706,-0.3344398955810274,98,27.553255121072983
7,0.5805805805805806,-0.3922497794764926,98,27.553255121072983
7,0.5905905905905906,-0.4245304852140364,98,27.553255121072983
7,0.6006006006006006,-0.4795717689936595,98,27.553255121072983
7,0.6106106106106106,-0.5350006227814962,98,27.553255121072983
7,0.6206206206206206,-0.5788953660010346,98,27.553255121072983
7,0.6306306306306306,-0.6252360534997554,98,27.553255121072983
7,0.6406406406406406,-0.6623543405003699,98,27.553255121072983
7,0.6506506506506506,-0.7017702478167926,98,27.553255121072983
7,0.6606606606606606,-0.7342402536005599,98,27.553255121072983
7,0.6706706706706707,-0.7527162010464188,98,27.553255121072983
7,0.6806806806806807,-0.7685543874491682,98,27.553255121072983
7,0.6906906906906907,-0.7797085692643329,98,27.553255121072983
7,0.7007007007007007,-0.772863423738059,98,27.553255121072983
7,0.7107107107107107,-0.7640555849022217,98,27.553255121072983
7,0.7207207207207207,-0.7466996406257628,98,27.553255121072983
7,0.7307307307307307,-0.7180430620643163,98,27.553255121072983
7,0.7407407407407407,-0.675602114522087,98,27.553255121072983
7,0.7507507507507507,-0.6346260586338093,98,27.553255121072983
7,0.7607607607607607,-0.5800090029178173,98,27.553255121072983
7,0.7707707707707707,-0.5123147029936419,98,27.553255121072983
7,0.7807807807807807,-0.4421245934067335,98,27.553255121072983
7,0.7907907907907907,-0.3671297121814418,98,27.553255121072983
7,0.8008008008008007,-0.2851215970952935,98,27.553255121072983
7,0.8108108108108109,-0.2032493680922246,98,27.553255121072983
7,0.8208208208208209,-0.1108303724883318,98,27.553255121072983
7,0.8308308308308309,-0.0238321324266273,98,27.553255121072983
7,0.8408408408408409,0.0657150349856905,98,27.553255121072983
7,0.8508508508508509,0.1623063478445315,98,27.553255121072983
7,0.8608608608608609,0.2517398437539988,98,27.553255121072983
7,0.8708708708708709,0.3263521672620186,98,27.553255121072983
7,0.8808808808808809,0.4010347437418565,98,27.553255121072983
7,0.8908908908908909,0.4891463034991301,98,27.553255121072983
7,0.9009009009009008,0.545176551613715,98,27.553255121072983
7,0.9109109109109108,0.606948942746885,98,27.553255121072983
7,0.9209209209209208,0.6544785511565,98,27.553255121072983
7,0.9309309309309308,0.7099625847394908,98,27.553255121072983
7,0.9409409409409408,0.7357919487640285,98,27.553255121072983
7,0.950950950950951,0.7579301077605162,98,27.553255121072983
7,0.960960960960961,0.7783496115326807,98,27.553255121072983
7,0.970970970970971,0.7772105192535198,98,27.553255121072983
7,0.980980980980981,0.7847827185112307,98,27.553255121072983
7,0.990990990990991,0.7540528811502016,98,27.553255121072983
7,1.001001001001001,0.7412783576601718,98,27.553255121072983
7,1.011011011011011,0.7215150645940154,98,27.553255121072983
7,1.021021021021021,0.6810256510947567,98,27.553255121072983
7,1.031031031031031,0.6438195653020765,98,27.553255121072983
7,1.0410410410410411,0.6021277612081527,98,27.553255121072983
7,1.0510510510510511,0.5545673342663728,98,27.553255121072983
7,1.0610610610610611,0.5080026194439539,98,27.553255121072983
7,1.0710710710710711,0.4589997142535472,98,27.553255121072983
7,1.0810810810810811,0.4000806712699111,98,27.553255121072983
7,1.0910910910910911,0.3514028320819623,98,27.553255121072983
7,1.1011011011011012,0.3053124696005195,98,27.553255121072983
7,1.1111111111111112,0.2533052024088431,98,27.553255121072983
7,1.1211211211211212,0.2153327223940971,98,27.553255121072983
7,1.1311311311311312,0.1725858837815422,98,27.553255121072983
7,1.1411411411411412,0.1457336329783252,98,27.553255121072983
7,1.1511511511511512,0.114766058832161,98,27.553255121072983
7,1.1611611611611612,0.0805477187919455,98,27.553255121072983
7,1.1711711711711712,0.060841322640875,98,27.553255121072983
7,1.1811811811811812,0.0401177180239076,98,27.553255121072983
7,1.1911911911911912,0.0247827056669706,98,27.553255121072983
7,1.2012012012012012,0.0177831181754588,98,27.553255121072983
7,1.2112112112112112,0.0053118645223596,98,27.553255121072983
7,1.2212212212212212,0.0014602470622648,98,27.553255121072983
7,1.2312312312312312,0.0017035793112137,98,27.553255121072983
7,1.2412412412412412,-0.0068913458257229,98,27.553255121072983
7,1.2512512512512513,-0.0066380863063821,98,27.553255121072983
7,1.2612612612612613,0.0043361575930469,98,27.553255121072983
7,1.2712712712712713,-0.0015658103411135,98,27.553255121072983
7,1.2812812812812813,0.0008562806172756,98,27.553255121072983
7,1.2912912912912913,-0.0034633621066106,98,27.553255121072983
7,1.3013013013013013,-0.0154236302070346,98,27.553255121072983
7,1.3113113113113113,-0.027722385134459,98,27.553255121072983
7,1.3213213213213213,-0.045500592617499,98,27.553255121072983
7,1.3313313313313313,-0.0589774856430493,98,27.553255121072983
7,1.3413413413413413,-0.0866030193648443,98,27.553255121072983
7,1.351351351351351,-0.1140164775392459,98,27.553255121072983
7,1.361361361361361,-0.1528148855187126,98,27.553255121072983
7,1.371371371371371,-0.1791497118631695,98,27.553255121072983
7,1.3813813813813811,-0.2178985345927475,98,27.553255121072983
7,1.3913913913913911,-0.2746834154117278,98,27.553255121072983
7,1.4014014014014011,-0.3107191605463528,98,27.553255121072983
7,1.4114114114114114,-0.3751509796801749,98,27.553255121072983
7,1.4214214214214214,-0.4144218259699609,98,27.553255121072983
7,1.4314314314314314,-0.4685427051077685,98,27.553255121072983
7,1.4414414414414414,-0.5239345004910189,98,27.553255121072983
7,1.4514514514514514,-0.5621198882580706,98,27.553255121072983
7,1.4614614614614614,-0.6163422242390284,98,27.553255121072983
7,1.4714714714714714,-0.6543533913932459,98,27.553255121072983
7,1.4814814814814814,-0.7083001649756417,98,27.553255121072983
7,1.4914914914914914,-0.7304108798969963,98,27.553255121072983
7,1.5015015015015014,-0.7552679114564612,98,27.553255121072983
7,1.5115115115115114,-0.7608975396926401,98,27.553255121072983
7,1.5215215215215214,-0.7740408161080051,98,27.553255121072983
7,1.5315315315315314,-0.7799179545336159,98,27.553255121072983
7,1.5415415415415414,-0.7752948781467413,98,27.553255121072983
7,1.5515515515515514,-0.7617941769103981,98,27.553255121072983
7,1.5615615615615617,-0.7321535810124922,98,27.553255121072983
7,1.5715715715715717,-0.6868513507520526,98,27.553255121072983
7,1.5815815815815817,-0.6399971935799325,98,27.553255121072983
7,1.5915915915915917,-0.5793022954821914,98,27.553255121072983
7,1.6016016016016017,-0.5328579127339937,98,27.553255121072983
7,1.6116116116116117,-0.4582674559918545,98,27.553255121072983
7,1.6216216216216215,-0.3916789492785218,98,27.553255121072983
7,1.6316316316316315,-0.2982427534333043,98,27.553255121072983
7,1.6416416416416415,-0.2249312918109283,98,27.553255121072983
7,1.6516516516516515,-0.138470867366972,98,27.553255121072983
7,1.6616616616616615,-0.0433747869135756,98,27.553255121072983
7,1.6716716716716715,0.042166623004006,98,27.553255121072983
7,1.6816816816816818,0.1324543952338125,98,27.553255121072983
7,1.6916916916916918,0.2246472892440274,98,27.553255121072983
7,1.7017017017017018,0.3070794385676749,98,27.553255121072983
7,1.7117117117117118,0.3792310852856174,98,27.553255121072983
7,1.7217217217217218,0.4609174686178461,98,27.553255121072983
7,1.7317317317317318,0.530503462552071,98,27.553255121072983
7,1.7417417417417418,0.589044353961982,98,27.553255121072983
7,1.7517517517517518,0.6504582890992258,98,27.553255121072983
7,1.7617617617617618,0.688968808766217,98,27.553255121072983
7,1.7717717717717718,0.7342253124077418,98,27.553255121072983
7,1.7817817817817818,0.750011109130156,98,27.553255121072983
7,1.7917917917917918,0.7764358908678487,98,27.553255121072983
7,1.8018018018018016,0.7796065922086252,98,27.553255121072983
7,1.811811811811812,0.7786571915875085,98,27.553255121072983
7,1.8218218218218216,0.7639363406460302,98,27.553255121072983
7,1.831831831831832,0.7494752679341824,98,27.553255121072983
7,1.8418418418418416,0.7238180992545299,98,27.553255121072983
7,1.851851851851852,0.6848246755013799,98,27.553255121072983
7,1.8618618618618616,0.6491755081377919,98,27.553255121072983
7,1.871871871871872,0.6092639918607694,98,27.553255121072983
7,1.8818818818818817,0.562111704031034,98,27.553255121072983
7,1.891891891891892,0.5123502520978438,98,27.553255121072983
7,1.901901901901902,0.4743111823805938,98,27.553255121072983
7,1.911911911911912,0.4154237462786505,98,27.553255121072983
7,1.921921921921922,0.3634332175501883,98,27.553255121072983
7,1.931931931931932,0.3275962567270624,98,27.553255121072983
7,1.941941941941942,0.2686005311216184,98,27.553255121072983
7,1.951951951951952,0.2233172979674079,98,27.553255121072983
7,1.961961961961962,0.1825844796820941,98,27.553255121072983
7,1.971971971971972,0.1497389845464718,98,27.553255121072983
7,1.981981981981982,0.115667575847081,98,27.553255121072983
7,1.991991991991992,0.0823455405723962,98,27.553255121072983
7,2.002002002002002,0.0659534000838967,98,27.553255121072983
7,2.012012012012012,0.0413498217733346,98,27.553255121072983
7,2.022022022022022,0.0256833114000148,98,27.553255121072983
7,2.032032032032032,0.0132354762752836,98,27.553255121072983
7,2.042042042042042,0.0044027150636729,98,27.553255121072983
7,2.052052052052052,0.0137240281163886,98,27.553255121072983
7,2.062062062062062,0.0071717545172755,98,27.553255121072983
7,2.072072072072072,0.0018443647525548,98,27.553255121072983
7,2.0820820820820822,-0.0011871838080076,98,27.553255121072983
7,2.092092092092092,-0.0029748610620641,98,27.553255121072983
7,2.1021021021021022,-0.001444674205136,98,27.553255121072983
7,2.112112112112112,-0.0002300094751091,98,27.553255121072983
7,2.1221221221221223,-0.0045078166117781,98,27.553255121072983
7,2.1321321321321323,-0.0147047931565865,98,27.553255121072983
7,2.1421421421421423,-0.0301721299781366,98,27.553255121072983
7,2.1521521521521523,-0.0344467571798526,98,27.553255121072983
7,2.1621621621621623,-0.0517399161140755,98,27.553255121072983
7,2.1721721721721723,-0.0749065044768026,98,27.553255121072983
7,2.1821821821821823,-0.1124823561079492,98,27.553255121072983
7,2.1921921921921923,-0.1416200232741848,98,27.553255121072983
7,2.2022022022022023,-0.1792905084641271,98,27.553255121072983
7,2.2122122122122123,-0.2162058822986863,98,27.553255121072983
7,2.2222222222222223,-0.2535910530682619,98,27.553255121072983
7,2.2322322322322323,-0.3095827493311629,98,27.553255121072983
7,2.2422422422422423,-0.357593299882616,98,27.553255121072983
7,2.2522522522522523,-0.4110535425543729,98,27.553255121072983
7,2.2622622622622623,-0.4547939742079268,98,27.553255121072983
7,2.2722722722722724,-0.5116707263865271,98,27.553255121072983
7,2.2822822822822824,-0.5624281654920715,98,27.553255121072983
7,2.2922922922922924,-0.6010745773093279,98,27.553255121072983
7,2.3023023023023024,-0.6458730382854557,98,27.553255121072983
7,2.3123123123123124,-0.6905370137377785,98,27.553255121072983
7,2.3223223223223224,-0.7227186676207487,98,27.553255121072983
7,2.3323323323323324,-0.7399021402887119,98,27.553255121072983
7,2.3423423423423424,-0.7557275691854227,98,27.553255121072983
7,2.3523523523523524,-0.7708990786217099,98,27.553255121072983
7,2.3623623623623624,-0.7874968189403201,98,27.553255121072983
7,2.3723723723723724,-0.7690809666707407,98,27.553255121072983
7,2.3823823823823824,-0.7666637531295033,98,27.553255121072983
7,2.3923923923923924,-0.7351725260605707,98,27.553255121072983
7,2.4024024024024024,-0.7014524048493518,98,27.553255121072983
7,2.4124124124124124,-0.6584505246230811,98,27.553255121072983
7,2.4224224224224224,-0.6079502532639806,98,27.553255121072983
7,2.4324324324324325,-0.5467907793232873,98,27.553255121072983
7,2.4424424424424425,-0.4828815760158366,98,27.553255121072983
7,2.4524524524524525,-0.4119115856257529,98,27.553255121072983
7,2.4624624624624625,-0.3336700843300863,98,27.553255121072983
7,2.4724724724724725,-0.2331287478158303,98,27.553255121072983
7,2.4824824824824825,-0.157250744807435,98,27.553255121072983
7,2.4924924924924925,-0.064794748217922,98,27.553255121072983
7,2.5025025025025025,0.0202710705295243,98,27.553255121072983
7,2.5125125125125125,0.1113321631775528,98,27.553255121072983
7,2.5225225225225225,0.2060171020216926,98,27.553255121072983
7,2.5325325325325325,0.2885055602742252,98,27.553255121072983
7,2.5425425425425425,0.3712463088774924,98,27.553255121072983
7,2.5525525525525525,0.4488966882975708,98,27.553255121072983
7,2.5625625625625625,0.5212971738470785,98,27.553255121072983
7,2.5725725725725725,0.5848188391416046,98,27.553255121072983
7,2.5825825825825826,0.6439419675533608,98,27.553255121072983
7,2.592592592592593,0.6895077843154008,98,27.553255121072983
7,2.6026026026026026,0.7163738965411339,98,27.553255121072983
7,2.612612612612613,0.7503889115174451,98,27.553255121072983
7,2.6226226226226226,0.7722897163314156,98,27.553255121072983
7,2.6326326326326326,0.776679449012887,98,27.553255121072983
7,2.6426426426426426,0.779059170588951,98,27.553255121072983
7,2.6526526526526526,0.7706597592767604,98,27.553255121072983
7,2.6626626626626626,0.7633954846577694,98,27.553255121072983
7,2.6726726726726726,0.7353156293800674,98,27.553255121072983
7,2.6826826826826826,0.6973913372403868,98,27.553255121072983
7,2.6926926926926926,0.657336288233086,98,27.553255121072983
7,2.702702702702702,0.6185082621110948,98,27.553255121072983
7,2.7127127127127126,0.5809809169037017,98,27.553255121072983
7,2.722722722722722,0.5252972172551547,98,27.553255121072983
7,2.7327327327327327,0.4747672722902787,98,27.553255121072983
7,2.7427427427427427,0.4262978116774604,98,27.553255121072983
7,2.7527527527527527,0.3837430152916599,98,27.553255121072983
7,2.7627627627627627,0.3199968011182031,98,27.553255121072983
7,2.7727727727727727,0.2842531822861835,98,27.553255121072983
7,2.7827827827827827,0.2355827736722964,98,27.553255121072983
7,2.7927927927927927,0.1964963356209596,98,27.553255121072983
7,2.8028028028028027,0.1530763529604694,98,27.553255121072983
7,2.8128128128128127,0.1191894421396263,98,27.553255121072983
7,2.8228228228228227,0.0863579598274291,98,27.553255121072983
7,2.8328328328328327,0.0661431939943959,98,27.553255121072983
7,2.8428428428428427,0.0538875718728452,98,27.553255121072983
7,2.8528528528528527,0.0266009887172193,98,27.553255121072983
7,2.8628628628628627,0.0178440824459387,98,27.553255121072983
7,2.8728728728728727,0.0104922871721388,98,27.553255121072983
7,2.8828828828828827,-0.0052011004885318,98,27.553255121072983
7,2.8928928928928928,0.0027175109074198,98,27.553255121072983
7,2.9029029029029028,0.0061123234795264,98,27.553255121072983
7,2.9129129129129128,-4.621643251563121e-05,98,27.553255121072983
7,2.9229229229229228,0.0029364274587389,98,27.553255121072983
7,2.932932932932933,-0.0063066747611291,98,27.553255121072983
7,2.942942942942943,-0.0039737281599071,98,27.553255121072983
7,2.952952952952953,-0.0093307306214208,98,27.553255121072983
7,2.962962962962963,-0.0191505085218205,98,27.553255121072983
7,2.972972972972973,-0.0207480851728772,98,27.553255121072983
7,2.982982982982983,-0.0398641042513829,98,27.553255121072983
7,2.992992992992993,-0.0516981496940731,98,27.553255121072983
7,3.003003003003003,-0.0799413492615529,98,27.553255121072983
7,3.013013013013013,-0.0981452195253987,98,27.553255121072983
7,3.023023023023023,-0.1251125900575666,98,27.553255121072983
7,3.033033033033033,-0.160956938374915,98,27.553255121072983
7,3.043043043043043,-0.2014495890694087,98,27.553255121072983
7,3.053053053053053,-0.2513256733742627,98,27.553255121072983
7,3.063063063063063,-0.3010373804070246,98,27.553255121072983
7,3.073073073073073,-0.3501515810306738,98,27.553255121072983
7,3.083083083083083,-0.3948901248682685,98,27.553255121072983
7,3.093093093093093,-0.4403535296966566,98,27.553255121072983
7,3.103103103103103,-0.4932875466172762,98,27.553255121072983
7,3.113113113113113,-0.5378003682655215,98,27.553255121072983
7,3.123123123123123,-0.5947526197396545,98,27.553255121072983
7,3.133133133133133,-0.6411434779406843,98,27.553255121072983
7,3.143143143143143,-0.6765785662021437,98,27.553255121072983
7,3.153153153153153,-0.7025319476960041,98,27.553255121072983
7,3.163163163163163,-0.7406950631961962,98,27.553255121072983
7,3.173173173173173,-0.7551878143566374,98,27.553255121072983
7,3.183183183183183,-0.7723813853000716,98,27.553255121072983
7,3.193193193193193,-0.785341987204358,98,27.553255121072983
7,3.203203203203203,-0.7740980601146205,98,27.553255121072983
7,3.2132132132132134,-0.7617575502323399,98,27.553255121072983
7,3.2232232232232234,-0.7406169899144731,98,27.553255121072983
7,3.2332332332332334,-0.70691407946468,98,27.553255121072983
7,3.2432432432432434,-0.6691281756469124,98,27.553255121072983
7,3.253253253253253,-0.6179668150648304,98,27.553255121072983
7,3.2632632632632634,-0.5631376202314903,98,27.553255121072983
7,3.273273273273273,-0.4922606935187345,98,27.553255121072983
7,3.2832832832832834,-0.4230242865341883,98,27.553255121072983
7,3.293293293293293,-0.3581862918608343,98,27.553255121072983
7,3.3033033033033035,-0.268482202895931,98,27.553255121072983
7,3.313313313313313,-0.1791967598240974,98,27.553255121072983
7,3.3233233233233235,-0.0896363740306769,98,27.553255121072983
7,3.333333333333333,-0.0025857020695341,98,27.553255121072983
7,3.3433433433433435,0.0919285129722529,98,27.553255121072983
7,3.353353353353353,0.1820492066308735,98,27.553255121072983
7,3.3633633633633635,0.2652691187815665,98,27.553255121072983
7,3.373373373373373,0.3504618654745545,98,27.553255121072983
7,3.3833833833833835,0.4280984612270477,98,27.553255121072983
7,3.393393393393393,0.4998079719920879,98,27.553255121072983
7,3.4034034034034035,0.5596943914920399,98,27.553255121072983
7,3.413413413413413,0.6225342295010402,98,27.553255121072983
7,3.4234234234234235,0.6779819364245872,98,27.553255121072983
7,3.433433433433433,0.7077329291045822,98,27.553255121072983
7,3.443443443443444,0.7422871085596453,98,27.553255121072983
7,3.4534534534534536,0.7553163814984792,98,27.553255121072983
7,3.463463463463464,0.777128152229281,98,27.553255121072983
7,3.4734734734734736,0.7817748275189805,98,27.553255121072983
7,3.483483483483484,0.7655972934554474,98,27.553255121072983
7,3.4934934934934936,0.7574431830844072,98,27.553255121072983
7,3.503503503503504,0.7379750620690866,98,27.553255121072983
7,3.5135135135135136,0.7110257527444451,98,27.553255121072983
7,3.523523523523524,0.6705662433216802,98,27.553255121072983
7,3.5335335335335336,0.6327329835500759,98,27.553255121072983
7,3.543543543543544,0.5951637555685171,98,27.553255121072983
7,3.5535535535535536,0.5440406151624487,98,27.553255121072983
7,3.563563563563564,0.4964132711086655,98,27.553255121072983
7,3.5735735735735736,0.4449250937336939,98,27.553255121072983
7,3.583583583583584,0.3952415477937626,98,27.553255121072983
7,3.5935935935935936,0.3366288877906609,98,27.553255121072983
7,3.603603603603604,0.2934632338372889,98,27.553255121072983
7,3.6136136136136137,0.2539751699028571,98,27.553255121072983
7,3.623623623623624,0.1926957675057094,98,27.553255121072983
7,3.6336336336336337,0.1703413081243737,98,27.553255121072983
7,3.643643643643644,0.1273168924163705,98,27.553255121072983
7,3.6536536536536537,0.0930927415106177,98,27.553255121072983
7,3.663663663663664,0.0739570749103465,98,27.553255121072983
7,3.6736736736736737,0.0542408272524305,98,27.553255121072983
7,3.683683683683684,0.0446432782352093,98,27.553255121072983
7,3.6936936936936937,0.0239274663438921,98,27.553255121072983
7,3.703703703703704,0.0113648078734947,98,27.553255121072983
7,3.7137137137137137,0.0035361533328794,98,27.553255121072983
7,3.723723723723724,0.0051505254152109,98,27.553255121072983
7,3.7337337337337337,0.0078616104053344,98,27.553255121072983
7,3.743743743743744,-0.0005159723170115,98,27.553255121072983
7,3.7537537537537538,-0.002148294441466,98,27.553255121072983
7,3.763763763763764,-0.0029366495885497,98,27.553255121072983
7,3.7737737737737738,-0.0003383499276306,98,27.553255121072983
7,3.783783783783784,-0.0082281139404393,98,27.553255121072983
7,3.793793793793794,-0.0112173562025283,98,27.553255121072983
7,3.803803803803804,-0.0222161960815254,98,27.553255121072983
7,3.813813813813814,-0.0354715370790624,98,27.553255121072983
7,3.823823823823824,-0.0524521696958899,98,27.553255121072983
7,3.833833833833834,-0.0691156914781697,98,27.553255121072983
7,3.843843843843844,-0.081848561871559,98,27.553255121072983
7,3.853853853853854,-0.1235867248580146,98,27.553255121072983
7,3.863863863863864,-0.1571885702864511,98,27.553255121072983
7,3.873873873873874,-0.1859185020889665,98,27.553255121072983
7,3.883883883883884,-0.2342682363606135,98,27.553255121072983
7,3.893893893893894,-0.2764371985286154,98,27.553255121072983
7,3.903903903903904,-0.3246330433201334,98,27.553255121072983
7,3.913913913913914,-0.3782052446295211,98,27.553255121072983
7,3.923923923923924,-0.4261624503053771,98,27.553255121072983
7,3.933933933933934,-0.4810280887359747,98,27.553255121072983
7,3.943943943943944,-0.5236209673365271,98,27.553255121072983
7,3.953953953953954,-0.5734578571201412,98,27.553255121072983
7,3.963963963963964,-0.6169285312814193,98,27.553255121072983
7,3.973973973973974,-0.6604331952851044,98,27.553255121072983
7,3.983983983983984,-0.7002864437268594,98,27.553255121072983
7,3.993993993993994,-0.7349061880643157,98,27.553255121072983
7,4.004004004004004,-0.7648228307089606,98,27.553255121072983
7,4.014014014014014,-0.7760508277468464,98,27.553255121072983
7,4.024024024024024,-0.7852568080207947,98,27.553255121072983
7,4.034034034034034,-0.7743499273680216,98,27.553255121072983
7,4.044044044044044,-0.7675465365427837,98,27.553255121072983
7,4.054054054054054,-0.7423462611032049,98,27.553255121072983
7,4.064064064064064,-0.7204581541303293,98,27.553255121072983
7,4.074074074074074,-0.6797577933597571,98,27.553255121072983
7,4.084084084084084,-0.6366428440376688,98,27.553255121072983
7,4.094094094094094,-0.5719331489481412,98,27.553255121072983
7,4.104104104104104,-0.5125776741958157,98,27.553255121072983
7,4.114114114114114,-0.4471802992059214,98,27.553255121072983
7,4.124124124124124,-0.3722036970689296,98,27.553255121072983
7,4.134134134134134,-0.2859350014988016,98,27.553255121072983
7,4.144144144144144,-0.1907124197422358,98,27.553255121072983
7,4.1541541541541545,-0.1143622748575373,98,27.553255121072983
7,4.1641641641641645,-0.023615550095769,98,27.553255121072983
7,4.174174174174175,0.0725605950123421,98,27.553255121072983
7,4.1841841841841845,0.1608331836839961,98,27.553255121072983
7,4.1941941941941945,0.2450630850542531,98,27.553255121072983
7,4.2042042042042045,0.3218567500458328,98,27.553255121072983
7,4.214214214214215,0.4057108380457276,98,27.553255121072983
7,4.2242242242242245,0.4873187049941342,98,27.553255121072983
7,4.2342342342342345,0.5508453842701567,98,27.553255121072983
7,4.2442442442442445,0.6101109783893157,98,27.553255121072983
7,4.254254254254255,0.6497822337148085,98,27.553255121072983
7,4.2642642642642645,0.6929438176402504,98,27.553255121072983
7,4.2742742742742745,0.7424467618692249,98,27.553255121072983
7,4.2842842842842845,0.7637105138497298,98,27.553255121072983
7,4.294294294294295,0.7726420215073347,98,27.553255121072983
7,4.3043043043043046,0.7726025955350311,98,27.553255121072983
7,4.314314314314315,0.7744127062556777,98,27.553255121072983
7,4.324324324324325,0.7617189281266356,98,27.553255121072983
7,4.334334334334335,0.7502270420668332,98,27.553255121072983
7,4.344344344344345,0.7113792678663998,98,27.553255121072983
7,4.354354354354355,0.6839616815091312,98,27.553255121072983
7,4.364364364364365,0.647947773633451,98,27.553255121072983
7,4.374374374374375,0.6060960862020954,98,27.553255121072983
7,4.384384384384385,0.5491878556640211,98,27.553255121072983
7,4.394394394394395,0.5122838973064667,98,27.553255121072983
7,4.404404404404405,0.4597579046980289,98,27.553255121072983
7,4.414414414414415,0.4031783148304888,98,27.553255121072983
7,4.424424424424425,0.3483574995632466,98,27.553255121072983
7,4.434434434434435,0.3076836827168337,98,27.553255121072983
7,4.444444444444445,0.2642661192142216,98,27.553255121072983
7,4.454454454454455,0.2177708433911407,98,27.553255121072983
7,4.464464464464465,0.1683561676359882,98,27.553255121072983
7,4.474474474474475,0.1482852293012277,98,27.553255121072983
7,4.484484484484485,0.1125116993443032,98,27.553255121072983
7,4.494494494494495,0.0895649091138599,98,27.553255121072983
7,4.504504504504505,0.0606482481605209,98,27.553255121072983
7,4.514514514514515,0.0403505991990873,98,27.553255121072983
7,4.524524524524525,0.0288817721097822,98,27.553255121072983
7,4.534534534534535,0.0195144517645923,98,27.553255121072983
7,4.544544544544545,0.014281572882486,98,27.553255121072983
7,4.554554554554555,0.004017010003452,98,27.553255121072983
7,4.564564564564565,0.0030066082471955,98,27.553255121072983
7,4.574574574574575,-0.0041251467082717,98,27.553255121072983
7,4.584584584584585,0.003896035629148,98,27.553255121072983
7,4.594594594594595,0.0002136751834183,98,27.553255121072983
7,4.604604604604605,-0.0014524284998415,98,27.553255121072983
7,4.614614614614615,0.0046247891078239,98,27.553255121072983
7,4.624624624624625,-0.0083045459920555,98,27.553255121072983
7,4.634634634634635,-0.0199878170753637,98,27.553255121072983
7,4.644644644644645,-0.0234523800246054,98,27.553255121072983
7,4.654654654654655,-0.0332555899633916,98,27.553255121072983
7,4.664664664664665,-0.0635124904182062,98,27.553255121072983
7,4.674674674674675,-0.0863619591256711,98,27.553255121072983
7,4.684684684684685,-0.1017940070207142,98,27.553255121072983
7,4.694694694694695,-0.1465455804796303,98,27.553255121072983
7,4.704704704704705,-0.1920788627431801,98,27.553255121072983
7,4.714714714714715,-0.2330725763073463,98,27.553255121072983
7,4.724724724724725,-0.2712518558938308,98,27.553255121072983
7,4.734734734734735,-0.3234982184971797,98,27.553255121072983
7,4.744744744744745,-0.3591973698265284,98,27.553255121072983
7,4.754754754754755,-0.4153374574346223,98,27.553255121072983
7,4.764764764764765,-0.4680872400760901,98,27.553255121072983
7,4.774774774774775,-0.521231637180109,98,27.553255121072983
7,4.784784784784785,-0.5697670139320752,98,27.553255121072983
7,4.794794794794795,-0.6115326916853157,98,27.553255121072983
7,4.804804804804805,-0.6514673173472811,98,27.553255121072983
7,4.814814814814815,-0.680222150749173,98,27.553255121072983
7,4.824824824824825,-0.7184743193047917,98,27.553255121072983
7,4.834834834834835,-0.7464208493988277,98,27.553255121072983
7,4.844844844844845,-0.7640070889799662,98,27.553255121072983
7,4.854854854854855,-0.7797384591099722,98,27.553255121072983
7,4.864864864864865,-0.7810607703176689,98,27.553255121072983
7,4.874874874874875,-0.7770818711887855,98,27.553255121072983
7,4.884884884884885,-0.7626611990900352,98,27.553255121072983
7,4.894894894894895,-0.7224282941743218,98,27.553255121072983
7,4.904904904904905,-0.685612813157726,98,27.553255121072983
7,4.914914914914915,-0.6420171865063622,98,27.553255121072983
7,4.924924924924925,-0.5874379011732115,98,27.553255121072983
7,4.934934934934935,-0.5355830170804867,98,27.553255121072983
7,4.944944944944945,-0.4720647069056362,98,27.553255121072983
7,4.954954954954955,-0.3929747810108788,98,27.553255121072983
7,4.964964964964965,-0.3144926956836681,98,27.553255121072983
7,4.974974974974975,-0.2191337386901853,98,27.553255121072983
7,4.984984984984985,-0.1336366412695987,98,27.553255121072983
7,4.994994994994995,-0.0385257568771362,98,27.553255121072983
7,5.005005005005005,0.0490333913291807,98,27.553255121072983
7,5.015015015015015,0.1254402295678769,98,27.553255121072983
7,5.025025025025025,0.228773471484396,98,27.553255121072983
7,5.035035035035035,0.307240056534395,98,27.553255121072983
7,5.045045045045045,0.3821464110638899,98,27.553255121072983
7,5.055055055055055,0.4596579777501391,98,27.553255121072983
7,5.065065065065065,0.5399280761635263,98,27.553255121072983
7,5.075075075075075,0.595529636232644,98,27.553255121072983
7,5.085085085085085,0.646704131620249,98,27.553255121072983
7,5.095095095095095,0.6910346752170587,98,27.553255121072983
7,5.105105105105105,0.7238339286578844,98,27.553255121072983
7,5.115115115115115,0.7431363546863325,98,27.553255121072983
7,5.125125125125125,0.7742761206672555,98,27.553255121072983
7,5.135135135135135,0.7685397311566422,98,27.553255121072983
7,5.145145145145145,0.7816471058110183,98,27.553255121072983
7,5.155155155155155,0.7660987452316242,98,27.553255121072983
7,5.165165165165165,0.747148853972541,98,27.553255121072983
7,5.175175175175175,0.7256584588222734,98,27.553255121072983
7,5.185185185185185,0.6976260843217221,98,27.553255121072983
7,5.195195195195195,0.6561233828337453,98,27.553255121072983
7,5.205205205205205,0.6104914111846701,98,27.553255121072983
7,5.215215215215215,0.5715917511424039,98,27.553255121072983
7,5.225225225225225,0.5134037096788706,98,27.553255121072983
7,5.235235235235235,0.4737498836520187,98,27.553255121072983
7,5.245245245245245,0.4270084000548744,98,27.553255121072983
7,5.255255255255255,0.3665760002367157,98,27.553255121072983
7,5.265265265265265,0.3177392433581943,98,27.553255121072983
7,5.275275275275275,0.2755166139715195,98,27.553255121072983
7,5.285285285285285,0.2279496844670545,98,27.553255121072983
7,5.295295295295295,0.188948760097787,98,27.553255121072983
7,5.305305305305305,0.1477846388340159,98,27.553255121072983
7,5.315315315315315,0.1160026704616214,98,27.553255121072983
7,5.325325325325325,0.0902192397551274,98,27.553255121072983
7,5.335335335335335,0.0638494969413427,98,27.553255121072983
7,5.345345345345345,0.0426921994115722,98,27.553255121072983
7,5.355355355355355,0.0308887873424132,98,27.553255121072983
7,5.365365365365365,0.0069033526219017,98,27.553255121072983
7,5.375375375375375,0.0102732043166764,98,27.553255121072983
7,5.385385385385385,0.0090923138013144,98,27.553255121072983
7,5.395395395395395,-0.00433329726839,98,27.553255121072983
7,5.405405405405405,-0.0008973380817909,98,27.553255121072983
7,5.415415415415415,-0.0004456953940456,98,27.553255121072983
7,5.425425425425425,-0.0047053747951713,98,27.553255121072983
7,5.435435435435435,-0.0015800422648119,98,27.553255121072983
7,5.445445445445445,-0.0052241515458488,98,27.553255121072983
7,5.455455455455455,-0.0162844406910528,98,27.553255121072983
7,5.465465465465465,-0.0109509611363078,98,27.553255121072983
7,5.475475475475475,-0.0170579713310923,98,27.553255121072983
7,5.485485485485485,-0.0410183032004784,98,27.553255121072983
7,5.495495495495495,-0.0587719005064269,98,27.553255121072983
7,5.505505505505505,-0.0849628600436903,98,27.553255121072983
7,5.515515515515515,-0.1168630751726957,98,27.553255121072983
7,5.525525525525525,-0.1401439347137468,98,27.553255121072983
7,5.535535535535535,-0.1752665465888603,98,27.553255121072983
7,5.545545545545545,-0.2126442725779463,98,27.553255121072983
7,5.555555555555555,-0.259831803757147,98,27.553255121072983
7,5.565565565565565,-0.316824036631234,98,27.553255121072983
7,5.575575575575575,-0.3542463824709991,98,27.553255121072983
7,5.585585585585585,-0.3992288137910588,98,27.553255121072983
7,5.595595595595595,-0.4555960641800606,98,27.553255121072983
7,5.605605605605605,-0.4992474027747726,98,27.553255121072983
7,5.615615615615615,-0.5621604052214431,98,27.553255121072983
7,5.625625625625625,-0.602396845301795,98,27.553255121072983
7,5.635635635635635,-0.638470181916018,98,27.553255121072983
7,5.645645645645645,-0.677010813294883,98,27.553255121072983
7,5.655655655655655,-0.7206338135007144,98,27.553255121072983
7,5.665665665665665,-0.7483279260770876,98,27.553255121072983
7,5.675675675675675,-0.7627534979390678,98,27.553255121072983
7,5.685685685685685,-0.7753147511746002,98,27.553255121072983
7,5.695695695695696,-0.7783053368371442,98,27.553255121072983
7,5.7057057057057055,-0.7807534942898408,98,27.553255121072983
7,5.715715715715716,-0.766079554746948,98,27.553255121072983
7,5.7257257257257255,-0.7396553955253232,98,27.553255121072983
7,5.735735735735736,-0.6929134084932546,98,27.553255121072983
7,5.7457457457457455,-0.6601404466037505,98,27.553255121072983
7,5.755755755755756,-0.6059911354712579,98,27.553255121072983
7,5.7657657657657655,-0.5581422750637537,98,27.553255121072983
7,5.775775775775776,-0.4796597066312946,98,27.553255121072983
7,5.7857857857857855,-0.4105671583687036,98,27.553255121072983
7,5.795795795795796,-0.3233931119270069,98,27.553255121072983
7,5.8058058058058055,-0.2410832263397042,98,27.553255121072983
7,5.815815815815816,-0.1551454511892505,98,27.553255121072983
7,5.8258258258258255,-0.0704841023552391,98,27.553255121072983
7,5.835835835835836,0.0335240858662107,98,27.553255121072983
7,5.8458458458458455,0.1192174556192111,98,27.553255121072983
7,5.855855855855856,0.2008347015108632,98,27.553255121072983
7,5.865865865865866,0.2913758079742617,98,27.553255121072983
7,5.875875875875876,0.3642840701141475,98,27.553255121072983
7,5.885885885885886,0.4463426689232809,98,27.553255121072983
7,5.895895895895896,0.522083134845384,98,27.553255121072983
7,5.905905905905906,0.5847528461623657,98,27.553255121072983
7,5.915915915915916,0.6254560972581114,98,27.553255121072983
7,5.925925925925926,0.6782397165139475,98,27.553255121072983
7,5.935935935935936,0.7122331035733286,98,27.553255121072983
7,5.945945945945946,0.7505274901813189,98,27.553255121072983
7,5.955955955955956,0.7674316968758034,98,27.553255121072983
7,5.965965965965966,0.7734882802854098,98,27.553255121072983
7,5.975975975975976,0.7804915840610193,98,27.553255121072983
7,5.985985985985986,0.7722977936253231,98,27.553255121072983
7,5.995995995995996,0.7504109797413349,98,27.553255121072983
7,6.006006006006006,0.7350422612964009,98,27.553255121072983
7,6.016016016016016,0.6961516726624718,98,27.553255121072983
7,6.026026026026026,0.6709415495501804,98,27.553255121072983
7,6.036036036036036,0.6152941591877159,98,27.553255121072983
7,6.046046046046046,0.5861241818687136,98,27.553255121072983
7,6.056056056056056,0.5357899650652161,98,27.553255121072983
7,6.066066066066066,0.4875980549900156,98,27.553255121072983
7,6.076076076076076,0.4289973680423416,98,27.553255121072983
7,6.086086086086086,0.379149218227952,98,27.553255121072983
7,6.096096096096096,0.3324324271834766,98,27.553255121072983
7,6.106106106106106,0.2759165891130076,98,27.553255121072983
7,6.116116116116116,0.2347201172557683,98,27.553255121072983
7,6.126126126126126,0.2051819153267353,98,27.553255121072983
7,6.136136136136136,0.1609540883217087,98,27.553255121072983
7,6.146146146146146,0.1295664630054991,98,27.553255121072983
7,6.156156156156156,0.0859667017253838,98,27.553255121072983
7,6.166166166166166,0.0704718632213135,98,27.553255121072983
7,6.176176176176176,0.0485320023715108,98,27.553255121072983
7,6.186186186186186,0.0172340921561407,98,27.553255121072983
7,6.196196196196196,0.0210287718592293,98,27.553255121072983
7,6.206206206206206,0.008070310903482,98,27.553255121072983
7,6.216216216216216,0.0029631318852654,98,27.553255121072983
7,6.226226226226226,0.0097515801221188,98,27.553255121072983
7,6.236236236236236,0.0001609586152423,98,27.553255121072983
7,6.246246246246246,0.0053865380294107,98,27.553255121072983
7,6.256256256256256,0.00031223965781,98,27.553255121072983
7,6.266266266266266,-0.0054412361860408,98,27.553255121072983
7,6.276276276276276,-0.0062665667676824,98,27.553255121072983
7,6.286286286286286,-0.0057389758679266,98,27.553255121072983
7,6.296296296296296,-0.0169935490940953,98,27.553255121072983
7,6.306306306306306,-0.0234964163645151,98,27.553255121072983
7,6.316316316316316,-0.030748673038005,98,27.553255121072983
7,6.326326326326326,-0.0632806805702485,98,27.553255121072983
7,6.336336336336336,-0.0749512203219539,98,27.553255121072983
7,6.346346346346346,-0.1007361057465352,98,27.553255121072983
7,6.356356356356356,-0.1361650396829567,98,27.553255121072983
7,6.366366366366366,-0.1771183906760535,98,27.553255121072983
7,6.376376376376376,-0.2096059219733246,98,27.553255121072983
7,6.386386386386386,-0.2472933887662129,98,27.553255121072983
7,6.396396396396396,-0.2987990574079172,98,27.553255121072983
7,6.406406406406406,-0.3429631023104381,98,27.553255121072983
7,6.416416416416417,-0.3937373389574047,98,27.553255121072983
7,6.426426426426427,-0.4401563770387576,98,27.553255121072983
7,6.436436436436437,-0.4857674713758293,98,27.553255121072983
7,6.446446446446447,-0.5397426468331744,98,27.553255121072983
7,6.456456456456457,-0.597015859590843,98,27.553255121072983
7,6.466466466466467,-0.6386750932454175,98,27.553255121072983
7,6.476476476476477,-0.6711624003708042,98,27.553255121072983
7,6.486486486486487,-0.7140784191882033,98,27.553255121072983
7,6.496496496496497,-0.745312494147278,98,27.553255121072983
7,6.506506506506507,-0.7573967641144569,98,27.553255121072983
7,6.516516516516517,-0.7764724604519619,98,27.553255121072983
7,6.526526526526527,-0.7845234326000098,98,27.553255121072983
7,6.536536536536537,-0.7766582580092207,98,27.553255121072983
7,6.546546546546547,-0.7630333741579007,98,27.553255121072983
7,6.556556556556557,-0.7399736120139239,98,27.553255121072983
7,6.566566566566567,-0.7075603246614852,98,27.553255121072983
7,6.576576576576577,-0.6711112438495157,98,27.553255121072983
7,6.586586586586587,-0.6174548519805524,98,27.553255121072983
7,6.596596596596597,-0.5717392568910211,98,27.553255121072983
7,6.606606606606607,-0.5017071547365826,98,27.553255121072983
7,6.616616616616617,-0.4333439780868213,98,27.553255121072983
7,6.626626626626627,-0.3503764190072666,98,27.553255121072983
7,6.636636636636637,-0.2699275632042815,98,27.553255121072983
7,6.646646646646647,-0.1802768436514894,98,27.553255121072983
7,6.656656656656657,-0.0927224516531393,98,27.553255121072983
7,6.666666666666667,0.0010324027020144,98,27.553255121072983
7,6.676676676676677,0.0753060946791381,98,27.553255121072983
7,6.686686686686687,0.1707378540552989,98,27.553255121072983
7,6.696696696696697,0.2681700680809695,98,27.553255121072983
7,6.706706706706707,0.3510618636020576,98,27.553255121072983
7,6.716716716716717,0.4264769679600332,98,27.553255121072983
7,6.726726726726727,0.496179184113297,98,27.553255121072983
7,6.736736736736737,0.5697128407110383,98,27.553255121072983
7,6.746746746746747,0.6168314647030573,98,27.553255121072983
7,6.756756756756757,0.6658651569347016,98,27.553255121072983
7,6.766766766766767,0.7189594962745358,98,27.553255121072983
7,6.776776776776777,0.7445592558296655,98,27.553255121072983
7,6.786786786786787,0.7534272198436259,98,27.553255121072983
7,6.796796796796797,0.7801460452910474,98,27.553255121072983
7,6.806806806806807,0.7754810887124655,98,27.553255121072983
7,6.816816816816817,0.7774098453295507,98,27.553255121072983
7,6.826826826826827,0.7652312694599549,98,27.553255121072983
7,6.836836836836837,0.7428897809900039,98,27.553255121072983
7,6.846846846846847,0.7035296689922421,98,27.553255121072983
7,6.856856856856857,0.6738033715618511,98,27.553255121072983
7,6.866866866866867,0.6276633120983337,98,27.553255121072983
7,6.876876876876877,0.6021713070594776,98,27.553255121072983
7,6.886886886886887,0.5426742596412769,98,27.553255121072983
7,6.896896896896897,0.4962413820738829,98,27.553255121072983
7,6.906906906906907,0.4347222882443105,98,27.553255121072983
7,6.916916916916917,0.3954247109866234,98,27.553255121072983
7,6.926926926926927,0.3416245663443704,98,27.553255121072983
7,6.936936936936937,0.2965758043979407,98,27.553255121072983
7,6.946946946946947,0.2491013529210791,98,27.553255121072983
7,6.956956956956957,0.2065991318702893,98,27.553255121072983
7,6.966966966966967,0.1571729432599952,98,27.553255121072983
7,6.976976976976977,0.1348107213661088,98,27.553255121072983
7,6.986986986986987,0.0947749841137661,98,27.553255121072983
7,6.996996996996997,0.0692047061348069,98,27.553255121072983
7,7.007007007007007,0.0468445853907867,98,27.553255121072983
7,7.017017017017017,0.0389813932546854,98,27.553255121072983
7,7.027027027027027,0.0176846309809374,98,27.553255121072983
7,7.037037037037037,0.0153866530183771,98,27.553255121072983
7,7.047047047047047,0.0047748955140086,98,27.553255121072983
7,7.057057057057057,0.0005564939121733,98,27.553255121072983
7,7.067067067067067,-0.0020859119691292,98,27.553255121072983
7,7.077077077077077,0.0018158591648422,98,27.553255121072983
7,7.087087087087087,0.0024578172784624,98,27.553255121072983
7,7.097097097097097,-0.0029775978999725,98,27.553255121072983
7,7.107107107107107,-0.003111332470192,98,27.553255121072983
7,7.117117117117117,-0.0071311352509442,98,27.553255121072983
7,7.127127127127127,-0.0098096561613498,98,27.553255121072983
7,7.137137137137137,-0.0189096372083617,98,27.553255121072983
7,7.147147147147147,-0.0254225084829428,98,27.553255121072983
7,7.157157157157157,-0.042949977725888,98,27.553255121072983
7,7.167167167167167,-0.0745124953580062,98,27.553255121072983
7,7.177177177177177,-0.1000515464326653,98,27.553255121072983
7,7.187187187187187,-0.1254791942279731,98,27.553255121072983
7,7.197197197197197,-0.1554307287373842,98,27.553255121072983
7,7.207207207207207,-0.2036029212912339,98,27.553255121072983
7,7.217217217217217,-0.2450109229492359,98,27.553255121072983
7,7.227227227227227,-0.2735820818635474,98,27.553255121072983
7,7.237237237237237,-0.3219885613149131,98,27.553255121072983
7,7.247247247247247,-0.3747708023389993,98,27.553255121072983
7,7.257257257257257,-0.424469048712451,98,27.553255121072983
7,7.267267267267267,-0.4821832886626285,98,27.553255121072983
7,7.277277277277277,-0.5353148229642601,98,27.553255121072983
7,7.287287287287287,-0.5769752182750181,98,27.553255121072983
7,7.297297297297297,-0.6251618520612727,98,27.553255121072983
7,7.307307307307307,-0.6671991326071376,98,27.553255121072983
7,7.317317317317317,-0.7054753284320349,98,27.553255121072983
7,7.327327327327327,-0.7314845277533464,98,27.553255121072983
7,7.337337337337337,-0.7522028691461402,98,27.553255121072983
7,7.347347347347347,-0.7815691186898355,98,27.553255121072983
7,7.357357357357357,-0.769461610629512,98,27.553255121072983
7,7.367367367367367,-0.7788352646760798,98,27.553255121072983
7,7.377377377377377,-0.7674509355805791,98,27.553255121072983
7,7.387387387387387,-0.7524688369352528,98,27.553255121072983
7,7.397397397397397,-0.7223871994391814,98,27.553255121072983
7,7.407407407407407,-0.6784014629442113,98,27.553255121072983
7,7.4174174174174174,-0.6311487839497382,98,27.553255121072983
7,7.4274274274274275,-0.5862308472772554,98,27.553255121072983
7,7.437437437437437,-0.5169743858338036,98,27.553255121072983
7,7.447447447447447,-0.4467960578923216,98,27.553255121072983
7,7.4574574574574575,-0.3758887884424242,98,27.553255121072983
7,7.4674674674674675,-0.2865396284513748,98,27.553255121072983
7,7.477477477477477,-0.2010021413128408,98,27.553255121072983
7,7.487487487487487,-0.110941810722369,98,27.553255121072983
7,7.4974974974974975,-0.022121711303997,98,27.553255121072983
7,7.5075075075075075,0.0670876772821755,98,27.553255121072983
7,7.517517517517517,0.15095078272288,98,27.553255121072983
7,7.527527527527527,0.2383874111737908,98,27.553255121072983
7,7.5375375375375375,0.3234337603238736,98,27.553255121072983
7,7.5475475475475475,0.4111784728432693,98,27.553255121072983
7,7.557557557557557,0.4790064715019272,98,27.553255121072983
7,7.567567567567567,0.5559392972187376,98,27.553255121072983
7,7.5775775775775776,0.6029193818324522,98,27.553255121072983
7,7.587587587587588,0.663474434496581,98,27.553255121072983
7,7.597597597597598,0.7003136150882424,98,27.553255121072983
7,7.607607607607608,0.7303003338287133,98,27.553255121072983
7,7.617617617617618,0.7520373151341323,98,27.553255121072983
7,7.627627627627628,0.7749620067026483,98,27.553255121072983
7,7.637637637637638,0.7876426288246036,98,27.553255121072983
7,7.647647647647648,0.7882424933450651,98,27.553255121072983
7,7.657657657657658,0.7652217313863815,98,27.553255121072983
7,7.667667667667668,0.73784354375305,98,27.553255121072983
7,7.677677677677678,0.7096300524369352,98,27.553255121072983
7,7.687687687687688,0.6840789770801932,98,27.553255121072983
7,7.697697697697698,0.6479655016769401,98,27.553255121072983
7,7.707707707707708,0.6021675742419152,98,27.553255121072983
7,7.717717717717718,0.5558658204083646,98,27.553255121072983
7,7.727727727727728,0.5231953147385962,98,27.553255121072983
7,7.737737737737738,0.4638070839924933,98,27.553255121072983
7,7.747747747747748,0.4030307137702276,98,27.553255121072983
7,7.757757757757758,0.3576053890446052,98,27.553255121072983
7,7.767767767767768,0.3097214091339397,98,27.553255121072983
7,7.777777777777778,0.2713634504580453,98,27.553255121072983
7,7.787787787787788,0.207507208938461,98,27.553255121072983
7,7.797797797797798,0.1745479900762987,98,27.553255121072983
7,7.807807807807808,0.1394158566776032,98,27.553255121072983
7,7.817817817817818,0.1132767317674309,98,27.553255121072983
7,7.827827827827828,0.0779523449623219,98,27.553255121072983
7,7.837837837837838,0.055461807568542,98,27.553255121072983
7,7.847847847847848,0.039928464129117,98,27.553255121072983
7,7.857857857857858,0.0336800524072313,98,27.553255121072983
7,7.867867867867868,0.0056067793262918,98,27.553255121072983
7,7.877877877877878,0.0099083685113795,98,27.553255121072983
7,7.887887887887888,-0.0030468701287146,98,27.553255121072983
7,7.897897897897898,-0.0099448626188549,98,27.553255121072983
7,7.907907907907908,-0.004535360522346,98,27.553255121072983
7,7.917917917917918,-0.0048331682137099,98,27.553255121072983
7,7.927927927927928,-0.00048201267577,98,27.553255121072983
7,7.937937937937938,-0.0106464687298291,98,27.553255121072983
7,7.947947947947948,0.0029472416865447,98,27.553255121072983
7,7.957957957957958,-0.0130539620952393,98,27.553255121072983
7,7.967967967967968,-0.0198982950704663,98,27.553255121072983
7,7.977977977977978,-0.035001786735691,98,27.553255121072983
7,7.987987987987988,-0.0370918180340731,98,27.553255121072983
7,7.997997997997998,-0.0632795650419779,98,27.553255121072983
7,8.008008008008009,-0.0887741210335361,98,27.553255121072983
7,8.018018018018019,-0.1131777058877071,98,27.553255121072983
7,8.028028028028029,-0.1495040162631057,98,27.553255121072983
7,8.038038038038039,-0.1803239928989741,98,27.553255121072983
7,8.048048048048049,-0.2277686732651711,98,27.553255121072983
7,8.058058058058059,-0.2680060638705238,98,27.553255121072983
7,8.068068068068069,-0.3176616500897938,98,27.553255121072983
7,8.078078078078079,-0.3678712210346955,98,27.553255121072983
7,8.088088088088089,-0.4145349899963168,98,27.553255121072983
7,8.098098098098099,-0.4722211038389946,98,27.553255121072983
7,8.108108108108109,-0.518995992437578,98,27.553255121072983
7,8.118118118118119,-0.569171741230024,98,27.553255121072983
7,8.128128128128129,-0.613546826631694,98,27.553255121072983
7,8.138138138138139,-0.6544063093839099,98,27.553255121072983
7,8.148148148148149,-0.693159835277068,98,27.553255121072983
7,8.158158158158159,-0.7183951823707966,98,27.553255121072983
7,8.168168168168169,-0.7565934733295178,98,27.553255121072983
7,8.178178178178179,-0.7691252523122573,98,27.553255121072983
7,8.188188188188189,-0.7677504670933479,98,27.553255121072983
7,8.198198198198199,-0.7855274167956033,98,27.553255121072983
7,8.208208208208209,-0.7798818966030402,98,27.553255121072983
7,8.218218218218219,-0.7504408403968597,98,27.553255121072983
7,8.228228228228229,-0.733815841559826,98,27.553255121072983
7,8.238238238238239,-0.6869704975039981,98,27.553255121072983
7,8.248248248248249,-0.6440519956800919,98,27.553255121072983
7,8.258258258258259,-0.5979217499140368,98,27.553255121072983
7,8.268268268268269,-0.5323742222021659,98,27.553255121072983
7,8.278278278278279,-0.4678797449771457,98,27.553255121072983
7,8.288288288288289,-0.3885667385623108,98,27.553255121072983
7,8.298298298298299,-0.3081539409484195,98,27.553255121072983
7,8.308308308308309,-0.2339840964851949,98,27.553255121072983
7,8.318318318318319,-0.1284180174644865,98,27.553255121072983
7,8.328328328328329,-0.051869263260132,98,27.553255121072983
7,8.338338338338339,0.0483551248085801,98,27.553255121072983
7,8.348348348348349,0.1275152864854717,98,27.553255121072983
7,8.358358358358359,0.2261064094982571,98,27.553255121072983
7,8.368368368368369,0.3116450713902652,98,27.553255121072983
7,8.378378378378379,0.3953052514776854,98,27.553255121072983
7,8.388388388388389,0.4580340632199979,98,27.553255121072983
7,8.398398398398399,0.5334287595078194,98,27.553255121072983
7,8.408408408408409,0.5989516086547774,98,27.553255121072983
7,8.418418418418419,0.6490112306196509,98,27.553255121072983
7,8.428428428428429,0.695387551500466,98,27.553255121072983
7,8.438438438438439,0.7338276370400885,98,27.553255121072983
7,8.448448448448449,0.7527144580851067,98,27.553255121072983
7,8.458458458458459,0.7721274915085353,98,27.553255121072983
7,8.468468468468469,0.7806010932327623,98,27.553255121072983
7,8.478478478478479,0.7702858916354567,98,27.553255121072983
7,8.488488488488489,0.7728506216755132,98,27.553255121072983
7,8.498498498498499,0.7478488976148094,98,27.553255121072983
7,8.508508508508509,0.7285693792568216,98,27.553255121072983
7,8.518518518518519,0.6923274653073135,98,27.553255121072983
7,8.528528528528529,0.6610366949622124,98,27.553255121072983
7,8.538538538538539,0.6078431473782796,98,27.553255121072983
7,8.548548548548549,0.5728443004581835,98,27.553255121072983
7,8.558558558558559,0.512919454590079,98,27.553255121072983
7,8.568568568568569,0.4663154772291787,98,27.553255121072983
7,8.578578578578579,0.4119533524062295,98,27.553255121072983
7,8.588588588588589,0.3662281903803846,98,27.553255121072983
7,8.598598598598599,0.3193697810194219,98,27.553255121072983
7,8.608608608608609,0.2758545741095473,98,27.553255121072983
7,8.618618618618619,0.2344231423457138,98,27.553255121072983
7,8.62862862862863,0.1893595887462608,98,27.553255121072983
7,8.63863863863864,0.1466782242323444,98,27.553255121072983
7,8.64864864864865,0.1121918429568887,98,27.553255121072983
7,8.65865865865866,0.08641108552834,98,27.553255121072983
7,8.66866866866867,0.062308357326578,98,27.553255121072983
7,8.67867867867868,0.0473431133246695,98,27.553255121072983
7,8.68868868868869,0.0274548238384269,98,27.553255121072983
7,8.6986986986987,0.0154835769714469,98,27.553255121072983
7,8.70870870870871,0.0068302422334344,98,27.553255121072983
7,8.71871871871872,0.0038577341344856,98,27.553255121072983
7,8.72872872872873,0.0087456253862058,98,27.553255121072983
7,8.73873873873874,-0.0043075830920577,98,27.553255121072983
7,8.74874874874875,-0.0014510979937379,98,27.553255121072983
7,8.75875875875876,0.0033505352925784,98,27.553255121072983
7,8.76876876876877,0.0016246904416421,98,27.553255121072983
7,8.77877877877878,0.0047477966954833,98,27.553255121072983
7,8.78878878878879,-0.0064869753383475,98,27.553255121072983
7,8.7987987987988,-0.0222952410594774,98,27.553255121072983
7,8.80880880880881,-0.0248327543784641,98,27.553255121072983
7,8.81881881881882,-0.0447367277519834,98,27.553255121072983
7,8.82882882882883,-0.0644089362616236,98,27.553255121072983
7,8.83883883883884,-0.0887172503354835,98,27.553255121072983
7,8.84884884884885,-0.1120353751928804,98,27.553255121072983
7,8.85885885885886,-0.1392394275383954,98,27.553255121072983
7,8.86886886886887,-0.1674445190153376,98,27.553255121072983
7,8.87887887887888,-0.2118820202303944,98,27.553255121072983
7,8.88888888888889,-0.2596650638983936,98,27.553255121072983
7,8.8988988988989,-0.3101197168037895,98,27.553255121072983
7,8.90890890890891,-0.3588930110844808,98,27.553255121072983
7,8.91891891891892,-0.413468008878926,98,27.553255121072983
7,8.92892892892893,-0.4597520922336207,98,27.553255121072983
7,8.93893893893894,-0.5042946199110053,98,27.553255121072983
7,8.94894894894895,-0.5489299464421868,98,27.553255121072983
7,8.95895895895896,-0.602664966287387,98,27.553255121072983
7,8.96896896896897,-0.6570024124476447,98,27.553255121072983
7,8.97897897897898,-0.6880204916765137,98,27.553255121072983
7,8.98898898898899,-0.7202529732365173,98,27.553255121072983
7,8.998998998999,-0.7489292531542305,98,27.553255121072983
7,9.00900900900901,-0.7726750540943206,98,27.553255121072983
7,9.01901901901902,-0.7717319798299741,98,27.553255121072983
7,9.02902902902903,-0.7754813936890324,98,27.553255121072983
7,9.03903903903904,-0.7722050494538986,98,27.553255121072983
7,9.04904904904905,-0.7667687086164234,98,27.553255121072983
7,9.05905905905906,-0.7352874097786478,98,27.553255121072983
7,9.06906906906907,-0.7070298304370587,98,27.553255121072983
7,9.07907907907908,-0.6596458306354356,98,27.553255121072983
7,9.08908908908909,-0.6073402710682619,98,27.553255121072983
7,9.0990990990991,-0.5526535866672053,98,27.553255121072983
7,9.10910910910911,-0.4881454988255772,98,27.553255121072983
7,9.11911911911912,-0.4075782971872469,98,27.553255121072983
7,9.12912912912913,-0.3260661281817754,98,27.553255121072983
7,9.13913913913914,-0.2488678810471599,98,27.553255121072983
7,9.14914914914915,-0.154416409521702,98,27.553255121072983
7,9.15915915915916,-0.0656957005421854,98,27.553255121072983
7,9.16916916916917,0.029809231259869,98,27.553255121072983
7,9.17917917917918,0.1055617180692344,98,27.553255121072983
7,9.18918918918919,0.2086848566172893,98,27.553255121072983
7,9.1991991991992,0.2823932587217664,98,27.553255121072983
7,9.20920920920921,0.3780698388481873,98,27.553255121072983
7,9.21921921921922,0.442521766011457,98,27.553255121072983
7,9.22922922922923,0.5164638590373973,98,27.553255121072983
7,9.23923923923924,0.5673979125106334,98,27.553255121072983
7,9.24924924924925,0.6263194333219447,98,27.553255121072983
7,9.25925925925926,0.6720737073623612,98,27.553255121072983
7,9.26926926926927,0.7223667943093487,98,27.553255121072983
7,9.27927927927928,0.7506288189048466,98,27.553255121072983
7,9.28928928928929,0.7745568094933943,98,27.553255121072983
7,9.2992992992993,0.7804672538864368,98,27.553255121072983
7,9.30930930930931,0.782488029159656,98,27.553255121072983
7,9.31931931931932,0.7678577126896898,98,27.553255121072983
7,9.32932932932933,0.764924942604327,98,27.553255121072983
7,9.33933933933934,0.7294567224220078,98,27.553255121072983
7,9.34934934934935,0.7112298006656764,98,27.553255121072983
7,9.35935935935936,0.6573016843272745,98,27.553255121072983
7,9.36936936936937,0.6282033907070493,98,27.553255121072983
7,9.37937937937938,0.5786310024551579,98,27.553255121072983
7,9.38938938938939,0.5324055805152629,98,27.553255121072983
7,9.3993993993994,0.4816966445303009,98,27.553255121072983
7,9.40940940940941,0.4259881039386881,98,27.553255121072983
7,9.41941941941942,0.3684853436087004,98,27.553255121072983
7,9.42942942942943,0.3392036946585236,98,27.553255121072983
7,9.43943943943944,0.2749240811093871,98,27.553255121072983
7,9.44944944944945,0.2348786481198199,98,27.553255121072983
7,9.45945945945946,0.1974388441034134,98,27.553255121072983
7,9.46946946946947,0.1619439700901953,98,27.553255121072983
7,9.47947947947948,0.118063634137606,98,27.553255121072983
7,9.48948948948949,0.0911480119177764,98,27.553255121072983
7,9.4994994994995,0.0605931518677983,98,27.553255121072983
7,9.50950950950951,0.0436747361655316,98,27.553255121072983
7,9.51951951951952,0.0215305274572017,98,27.553255121072983
7,9.52952952952953,0.0183605770833142,98,27.553255121072983
7,9.53953953953954,0.0089406331181025,98,27.553255121072983
7,9.54954954954955,0.0126718483586059,98,27.553255121072983
7,9.55955955955956,0.0005326878277907,98,27.553255121072983
7,9.56956956956957,-0.0019443154678535,98,27.553255121072983
7,9.57957957957958,-0.0003782089551853,98,27.553255121072983
7,9.58958958958959,0.0009512942364755,98,27.553255121072983
7,9.5995995995996,0.0081692966816123,98,27.553255121072983
7,9.60960960960961,0.0004803358387787,98,27.553255121072983
7,9.61961961961962,-0.0059740178784737,98,27.553255121072983
7,9.62962962962963,-0.0171875577617779,98,27.553255121072983
7,9.63963963963964,-0.0168156736801614,98,27.553255121072983
7,9.64964964964965,-0.0392692374723529,98,27.553255121072983
7,9.65965965965966,-0.0441408996891782,98,27.553255121072983
7,9.66966966966967,-0.0724585400629251,98,27.553255121072983
7,9.67967967967968,-0.0972117464891111,98,27.553255121072983
7,9.68968968968969,-0.128323015636238,98,27.553255121072983
7,9.6996996996997,-0.1622723384461439,98,27.553255121072983
7,9.70970970970971,-0.1936182785539637,98,27.553255121072983
7,9.71971971971972,-0.249612340587125,98,27.553255121072983
7,9.72972972972973,-0.2962942317336661,98,27.553255121072983
7,9.73973973973974,-0.3421153993354035,98,27.553255121072983
7,9.74974974974975,-0.3985509566300802,98,27.553255121072983
7,9.75975975975976,-0.4428941479322235,98,27.553255121072983
7,9.76976976976977,-0.4919413187688964,98,27.553255121072983
7,9.77977977977978,-0.5425929688667771,98,27.553255121072983
7,9.78978978978979,-0.5945159228033229,98,27.553255121072983
7,9.7997997997998,-0.6429972424090142,98,27.553255121072983
7,9.80980980980981,-0.6701094834218747,98,27.553255121072983
7,9.81981981981982,-0.7081098343889342,98,27.553255121072983
7,9.82982982982983,-0.735583381350339,98,27.553255121072983
7,9.83983983983984,-0.7611255571465599,98,27.553255121072983
7,9.84984984984985,-0.7679385405595247,98,27.553255121072983
7,9.85985985985986,-0.7813365826234296,98,27.553255121072983
7,9.86986986986987,-0.7817304504792754,98,27.553255121072983
7,9.87987987987988,-0.764130792701028,98,27.553255121072983
7,9.88988988988989,-0.7461667610333359,98,27.553255121072983
7,9.8998998998999,-0.7094692845880853,98,27.553255121072983
7,9.90990990990991,-0.671392135361127,98,27.553255121072983
7,9.91991991991992,-0.6224086677628458,98,27.553255121072983
7,9.92992992992993,-0.5671462092360888,98,27.553255121072983
7,9.93993993993994,-0.5033849573569784,98,27.553255121072983
7,9.94994994994995,-0.4312037851871702,98,27.553255121072983
7,9.95995995995996,-0.3580532243801058,98,27.553255121072983
7,9.96996996996997,-0.26347412692798,98,27.553255121072983
7,9.97997997997998,-0.1798057882756283,98,27.553255121072983
7,9.98998998998999,-0.0963502981568343,98,27.553255121072983
7,10.0,0.0032991667728137,98,27.553255121072983
