Subject_ID,Time,PPG,HR,HRV
10,0.0,0.0044776297428649,61,90.14936228033577
10,0.01001001001001,0.0950831465824605,61,90.14936228033577
10,0.02002002002002,0.1802183732720266,61,90.14936228033577
10,0.03003003003003,0.267075461252782,61,90.14936228033577
10,0.04004004004004,0.3482728084216371,61,90.14936228033577
10,0.05005005005005,0.4287265633255687,61,90.14936228033577
10,0.06006006006006,0.4951421958546896,61,90.14936228033577
10,0.07007007007007,0.5616500005575392,61,90.14936228033577
10,0.08008008008008,0.6207048182975226,61,90.14936228033577
10,0.09009009009009,0.6802436254728083,61,90.14936228033577
10,0.1001001001001,0.6962945285124026,61,90.14936228033577
10,0.1101101101101101,0.7404009550255638,61,90.14936228033577
10,0.1201201201201201,0.7727770655630788,61,90.14936228033577
10,0.1301301301301301,0.7720076854854603,61,90.14936228033577
10,0.1401401401401401,0.7745735688700882,61,90.14936228033577
10,0.1501501501501501,0.7791259927124529,61,90.14936228033577
10,0.1601601601601601,0.768345387123265,61,90.14936228033577
10,0.1701701701701701,0.7297297325520445,61,90.14936228033577
10,0.1801801801801801,0.7151317720882935,61,90.14936228033577
10,0.1901901901901901,0.6768376017315377,61,90.14936228033577
10,0.2002002002002001,0.6349019504202491,61,90.14936228033577
10,0.2102102102102102,0.5946288861536361,61,90.14936228033577
10,0.2202202202202202,0.5471209602464255,61,90.14936228033577
10,0.2302302302302302,0.4819688904878708,61,90.14936228033577
10,0.2402402402402402,0.4438049201655074,61,90.14936228033577
10,0.2502502502502503,0.3889611528371099,61,90.14936228033577
10,0.2602602602602603,0.3514808971604184,61,90.14936228033577
10,0.2702702702702703,0.2936185678709547,61,90.14936228033577
10,0.2802802802802803,0.2474335040919527,61,90.14936228033577
10,0.2902902902902903,0.1972453310456122,61,90.14936228033577
10,0.3003003003003003,0.1683438008554265,61,90.14936228033577
10,0.3103103103103103,0.1234980157171296,61,90.14936228033577
10,0.3203203203203203,0.0990396603864889,61,90.14936228033577
10,0.3303303303303303,0.0720649369689099,61,90.14936228033577
10,0.3403403403403403,0.0494756454074899,61,90.14936228033577
10,0.3503503503503503,0.0339022288278417,61,90.14936228033577
10,0.3603603603603603,0.0215554678145321,61,90.14936228033577
10,0.3703703703703703,0.0136685045821778,61,90.14936228033577
10,0.3803803803803803,0.0002770871879462,61,90.14936228033577
10,0.3903903903903903,0.0036000540938983,61,90.14936228033577
10,0.4004004004004003,0.0030378187339794,61,90.14936228033577
10,0.4104104104104104,-0.001769409691767,61,90.14936228033577
10,0.4204204204204204,-0.0110157047608635,61,90.14936228033577
10,0.4304304304304304,-0.0019627706214499,61,90.14936228033577
10,0.4404404404404404,-0.0022027956409385,61,90.14936228033577
10,0.4504504504504504,-0.0081337438002886,61,90.14936228033577
10,0.4604604604604604,-0.013379487036091,61,90.14936228033577
10,0.4704704704704704,-0.0204682561927459,61,90.14936228033577
10,0.4804804804804805,-0.0343172790955046,61,90.14936228033577
10,0.4904904904904905,-0.047936905422422,61,90.14936228033577
10,0.5005005005005005,-0.0830913945245984,61,90.14936228033577
10,0.5105105105105106,-0.0946824512579748,61,90.14936228033577
10,0.5205205205205206,-0.1148495418873264,61,90.14936228033577
10,0.5305305305305306,-0.1595579969192302,61,90.14936228033577
10,0.5405405405405406,-0.1905764595222459,61,90.14936228033577
10,0.5505505505505506,-0.2281868202036973,61,90.14936228033577
10,0.5605605605605606,-0.2838070138598916,61,90.14936228033577
10,0.5705705705705706,-0.3323193090131142,61,90.14936228033577
10,0.5805805805805806,-0.3876184297510033,61,90.14936228033577
10,0.5905905905905906,-0.4362071647663095,61,90.14936228033577
10,0.6006006006006006,-0.4766172858599142,61,90.14936228033577
10,0.6106106106106106,-0.5237710362196214,61,90.14936228033577
10,0.6206206206206206,-0.5873536139773965,61,90.14936228033577
10,0.6306306306306306,-0.6213983354679671,61,90.14936228033577
10,0.6406406406406406,-0.6666824138027535,61,90.14936228033577
10,0.6506506506506506,-0.7016780584715112,61,90.14936228033577
10,0.6606606606606606,-0.7241596244259643,61,90.14936228033577
10,0.6706706706706707,-0.750240438932776,61,90.14936228033577
10,0.6806806806806807,-0.767976139450882,61,90.14936228033577
10,0.6906906906906907,-0.7903677892043423,61,90.14936228033577
10,0.7007007007007007,-0.7817140874775768,61,90.14936228033577
10,0.7107107107107107,-0.7660542916224538,61,90.14936228033577
10,0.7207207207207207,-0.7479625327404743,61,90.14936228033577
10,0.7307307307307307,-0.7123888686273415,61,90.14936228033577
10,0.7407407407407407,-0.6791079839427848,61,90.14936228033577
10,0.7507507507507507,-0.6293862422030426,61,90.14936228033577
10,0.7607607607607607,-0.578191473525092,61,90.14936228033577
10,0.7707707707707707,-0.5220820703188208,61,90.14936228033577
10,0.7807807807807807,-0.4526089407993622,61,90.14936228033577
10,0.7907907907907907,-0.3732081216745425,61,90.14936228033577
10,0.8008008008008007,-0.2818806072673684,61,90.14936228033577
10,0.8108108108108109,-0.1894450438217328,61,90.14936228033577
10,0.8208208208208209,-0.1029210255852126,61,90.14936228033577
10,0.8308308308308309,-0.0222471935704581,61,90.14936228033577
10,0.8408408408408409,0.0717594905669489,61,90.14936228033577
10,0.8508508508508509,0.1570393954812199,61,90.14936228033577
10,0.8608608608608609,0.2430281367608338,61,90.14936228033577
10,0.8708708708708709,0.3267744024675503,61,90.14936228033577
10,0.8808808808808809,0.4068841875427476,61,90.14936228033577
10,0.8908908908908909,0.4878102865931141,61,90.14936228033577
10,0.9009009009009008,0.5477171229986303,61,90.14936228033577
10,0.9109109109109108,0.6036275005881816,61,90.14936228033577
10,0.9209209209209208,0.6654320746709929,61,90.14936228033577
10,0.9309309309309308,0.6939260482254134,61,90.14936228033577
10,0.9409409409409408,0.7373708181022233,61,90.14936228033577
10,0.950950950950951,0.7541486907100756,61,90.14936228033577
10,0.960960960960961,0.768974056979859,61,90.14936228033577
10,0.970970970970971,0.7720052564910846,61,90.14936228033577
10,0.980980980980981,0.784679550674619,61,90.14936228033577
10,0.990990990990991,0.7578769960761269,61,90.14936228033577
10,1.001001001001001,0.7507627155508348,61,90.14936228033577
10,1.011011011011011,0.7160007962758611,61,90.14936228033577
10,1.021021021021021,0.6834853107290326,61,90.14936228033577
10,1.031031031031031,0.6515638682761004,61,90.14936228033577
10,1.0410410410410411,0.602402414992285,61,90.14936228033577
10,1.0510510510510511,0.5669432225554732,61,90.14936228033577
10,1.0610610610610611,0.5112269803911379,61,90.14936228033577
10,1.0710710710710711,0.4543231054759429,61,90.14936228033577
10,1.0810810810810811,0.4085508616383814,61,90.14936228033577
10,1.0910910910910911,0.3523069960151834,61,90.14936228033577
10,1.1011011011011012,0.307781503037708,61,90.14936228033577
10,1.1111111111111112,0.2581096627866069,61,90.14936228033577
10,1.1211211211211212,0.2145788336979648,61,90.14936228033577
10,1.1311311311311312,0.1782753168300635,61,90.14936228033577
10,1.1411411411411412,0.1422468709073195,61,90.14936228033577
10,1.1511511511511512,0.1064966695161772,61,90.14936228033577
10,1.1611611611611612,0.0734657021619914,61,90.14936228033577
10,1.1711711711711712,0.0622340441886274,61,90.14936228033577
10,1.1811811811811812,0.032550205488722,61,90.14936228033577
10,1.1911911911911912,0.0215154961897222,61,90.14936228033577
10,1.2012012012012012,0.013704356392886,61,90.14936228033577
10,1.2112112112112112,0.0077413208989918,61,90.14936228033577
10,1.2212212212212212,-0.000642114133104,61,90.14936228033577
10,1.2312312312312312,-0.0009499546579068,61,90.14936228033577
10,1.2412412412412412,0.0094158907338496,61,90.14936228033577
10,1.2512512512512513,-0.0041178064433861,61,90.14936228033577
10,1.2612612612612613,0.0002225123235773,61,90.14936228033577
10,1.2712712712712713,-0.0039285293007599,61,90.14936228033577
10,1.2812812812812813,-0.0110501667717032,61,90.14936228033577
10,1.2912912912912913,-0.0163201264906689,61,90.14936228033577
10,1.3013013013013013,-0.0270636328787441,61,90.14936228033577
10,1.3113113113113113,-0.0339039903189804,61,90.14936228033577
10,1.3213213213213213,-0.0422191761893198,61,90.14936228033577
10,1.3313313313313313,-0.0510995519936539,61,90.14936228033577
10,1.3413413413413413,-0.0853984251382179,61,90.14936228033577
10,1.351351351351351,-0.1144231100673978,61,90.14936228033577
10,1.361361361361361,-0.1440895598919074,61,90.14936228033577
10,1.371371371371371,-0.1905736528205014,61,90.14936228033577
10,1.3813813813813811,-0.2237829345193754,61,90.14936228033577
10,1.3913913913913911,-0.2643328928836641,61,90.14936228033577
10,1.4014014014014011,-0.3170552520407754,61,90.14936228033577
10,1.4114114114114114,-0.3644539175833206,61,90.14936228033577
10,1.4214214214214214,-0.4201229591665377,61,90.14936228033577
10,1.4314314314314314,-0.4709367640774074,61,90.14936228033577
10,1.4414414414414414,-0.5105099463162476,61,90.14936228033577
10,1.4514514514514514,-0.5690722111556059,61,90.14936228033577
10,1.4614614614614614,-0.6029230846128133,61,90.14936228033577
10,1.4714714714714714,-0.6619536063813465,61,90.14936228033577
10,1.4814814814814814,-0.696500503350059,61,90.14936228033577
10,1.4914914914914914,-0.7226413130904209,61,90.14936228033577
10,1.5015015015015014,-0.7451963746226856,61,90.14936228033577
10,1.5115115115115114,-0.7674171344164453,61,90.14936228033577
10,1.5215215215215214,-0.7730531722301061,61,90.14936228033577
10,1.5315315315315314,-0.7712707071226682,61,90.14936228033577
10,1.5415415415415414,-0.7688952059559397,61,90.14936228033577
10,1.5515515515515514,-0.7545261226021301,61,90.14936228033577
10,1.5615615615615617,-0.7261375001025363,61,90.14936228033577
10,1.5715715715715717,-0.6943279541884724,61,90.14936228033577
10,1.5815815815815817,-0.6464976168401715,61,90.14936228033577
10,1.5915915915915917,-0.5967427056484645,61,90.14936228033577
10,1.6016016016016017,-0.5318273900453214,61,90.14936228033577
10,1.6116116116116117,-0.4602943865212804,61,90.14936228033577
10,1.6216216216216215,-0.3770435405355056,61,90.14936228033577
10,1.6316316316316315,-0.2955368519335578,61,90.14936228033577
10,1.6416416416416415,-0.2263672745792413,61,90.14936228033577
10,1.6516516516516515,-0.125656110333917,61,90.14936228033577
10,1.6616616616616615,-0.0454511599407155,61,90.14936228033577
10,1.6716716716716715,0.0551754750648736,61,90.14936228033577
10,1.6816816816816818,0.1437202338674851,61,90.14936228033577
10,1.6916916916916918,0.2107699711576677,61,90.14936228033577
10,1.7017017017017018,0.31343324148123,61,90.14936228033577
10,1.7117117117117118,0.3884441319311594,61,90.14936228033577
10,1.7217217217217218,0.465469709674097,61,90.14936228033577
10,1.7317317317317318,0.5268874718477735,61,90.14936228033577
10,1.7417417417417418,0.5969274866667935,61,90.14936228033577
10,1.7517517517517518,0.6387785530392347,61,90.14936228033577
10,1.7617617617617618,0.6930771439104313,61,90.14936228033577
10,1.7717717717717718,0.7258701558754881,61,90.14936228033577
10,1.7817817817817818,0.755362674458736,61,90.14936228033577
10,1.7917917917917918,0.7702393015126314,61,90.14936228033577
10,1.8018018018018016,0.7795006013769455,61,90.14936228033577
10,1.811811811811812,0.7735563278661785,61,90.14936228033577
10,1.8218218218218216,0.766380023072175,61,90.14936228033577
10,1.831831831831832,0.7545728351554692,61,90.14936228033577
10,1.8418418418418416,0.7283629943598602,61,90.14936228033577
10,1.851851851851852,0.6901354096345244,61,90.14936228033577
10,1.8618618618618616,0.6535420519953584,61,90.14936228033577
10,1.871871871871872,0.6084416379924358,61,90.14936228033577
10,1.8818818818818817,0.5698394578172785,61,90.14936228033577
10,1.891891891891892,0.513587736044882,61,90.14936228033577
10,1.901901901901902,0.4652496046844266,61,90.14936228033577
10,1.911911911911912,0.4195184315660653,61,90.14936228033577
10,1.921921921921922,0.3641235973650459,61,90.14936228033577
10,1.931931931931932,0.3254076563931925,61,90.14936228033577
10,1.941941941941942,0.2784397417790795,61,90.14936228033577
10,1.951951951951952,0.2356363008007392,61,90.14936228033577
10,1.961961961961962,0.1873950773644575,61,90.14936228033577
10,1.971971971971972,0.1450477317522646,61,90.14936228033577
10,1.981981981981982,0.117901431091205,61,90.14936228033577
10,1.991991991991992,0.083619314380049,61,90.14936228033577
10,2.002002002002002,0.0559765179471568,61,90.14936228033577
10,2.012012012012012,0.0432363618163427,61,90.14936228033577
10,2.022022022022022,0.0270449905480887,61,90.14936228033577
10,2.032032032032032,0.0183433480463229,61,90.14936228033577
10,2.042042042042042,0.0141113070988734,61,90.14936228033577
10,2.052052052052052,0.0040090904337384,61,90.14936228033577
10,2.062062062062062,-0.0006703919877122,61,90.14936228033577
10,2.072072072072072,-0.0045397833377741,61,90.14936228033577
10,2.0820820820820822,-0.0029479434176927,61,90.14936228033577
10,2.092092092092092,-0.0059890645278471,61,90.14936228033577
10,2.1021021021021022,0.0019263667506903,61,90.14936228033577
10,2.112112112112112,-0.004156022137869,61,90.14936228033577
10,2.1221221221221223,-0.0138078937800817,61,90.14936228033577
10,2.1321321321321323,-0.0168760110726428,61,90.14936228033577
10,2.1421421421421423,-0.0250632464658517,61,90.14936228033577
10,2.1521521521521523,-0.0448636501781896,61,90.14936228033577
10,2.1621621621621623,-0.0536386280065368,61,90.14936228033577
10,2.1721721721721723,-0.0713310213760942,61,90.14936228033577
10,2.1821821821821823,-0.1024526061277377,61,90.14936228033577
10,2.1921921921921923,-0.1370088199584138,61,90.14936228033577
10,2.2022022022022023,-0.1744821855427227,61,90.14936228033577
10,2.2122122122122123,-0.2190671543132022,61,90.14936228033577
10,2.2222222222222223,-0.2655519815725894,61,90.14936228033577
10,2.2322322322322323,-0.3091585316916764,61,90.14936228033577
10,2.2422422422422423,-0.3479405141613484,61,90.14936228033577
10,2.2522522522522523,-0.407404952699227,61,90.14936228033577
10,2.2622622622622623,-0.4520563288391661,61,90.14936228033577
10,2.2722722722722724,-0.5074823504861223,61,90.14936228033577
10,2.2822822822822824,-0.5505065241511576,61,90.14936228033577
10,2.2922922922922924,-0.6050303846122311,61,90.14936228033577
10,2.3023023023023024,-0.6466211324624437,61,90.14936228033577
10,2.3123123123123124,-0.6856443023274118,61,90.14936228033577
10,2.3223223223223224,-0.7090432391323739,61,90.14936228033577
10,2.3323323323323324,-0.746116226850147,61,90.14936228033577
10,2.3423423423423424,-0.7700794740413437,61,90.14936228033577
10,2.3523523523523524,-0.7691822947684763,61,90.14936228033577
10,2.3623623623623624,-0.7757208224894151,61,90.14936228033577
10,2.3723723723723724,-0.7803718500033349,61,90.14936228033577
10,2.3823823823823824,-0.754538497499759,61,90.14936228033577
10,2.3923923923923924,-0.7382681207450944,61,90.14936228033577
10,2.4024024024024024,-0.7015197461003113,61,90.14936228033577
10,2.4124124124124124,-0.65939371369058,61,90.14936228033577
10,2.4224224224224224,-0.6108657584229583,61,90.14936228033577
10,2.4324324324324325,-0.5448833825912583,61,90.14936228033577
10,2.4424424424424425,-0.4803196246057259,61,90.14936228033577
10,2.4524524524524525,-0.417220703323935,61,90.14936228033577
10,2.4624624624624625,-0.3226378404830827,61,90.14936228033577
10,2.4724724724724725,-0.2482282660309016,61,90.14936228033577
10,2.4824824824824825,-0.1567153723592291,61,90.14936228033577
10,2.4924924924924925,-0.0617928116747393,61,90.14936228033577
10,2.5025025025025025,0.0243241249936429,61,90.14936228033577
10,2.5125125125125125,0.119010919666977,61,90.14936228033577
10,2.5225225225225225,0.2013113227843511,61,90.14936228033577
10,2.5325325325325325,0.2952913373463986,61,90.14936228033577
10,2.5425425425425425,0.376221975048174,61,90.14936228033577
10,2.5525525525525525,0.4462086785234072,61,90.14936228033577
10,2.5625625625625625,0.5172910046410729,61,90.14936228033577
10,2.5725725725725725,0.5798773151218639,61,90.14936228033577
10,2.5825825825825826,0.6284623662806718,61,90.14936228033577
10,2.592592592592593,0.6828473188050427,61,90.14936228033577
10,2.6026026026026026,0.713317441718103,61,90.14936228033577
10,2.612612612612613,0.7516562991860245,61,90.14936228033577
10,2.6226226226226226,0.7598119922162717,61,90.14936228033577
10,2.6326326326326326,0.7775393110089412,61,90.14936228033577
10,2.6426426426426426,0.783848521387692,61,90.14936228033577
10,2.6526526526526526,0.7786363944612065,61,90.14936228033577
10,2.6626626626626626,0.7564021524552307,61,90.14936228033577
10,2.6726726726726726,0.7291082831972285,61,90.14936228033577
10,2.6826826826826826,0.7097667730597922,61,90.14936228033577
10,2.6926926926926926,0.6632834299605638,61,90.14936228033577
10,2.702702702702702,0.6209023384387637,61,90.14936228033577
10,2.7127127127127126,0.5790605541745696,61,90.14936228033577
10,2.722722722722722,0.5256977255011367,61,90.14936228033577
10,2.7327327327327327,0.4832681528311415,61,90.14936228033577
10,2.7427427427427427,0.4304807038159205,61,90.14936228033577
10,2.7527527527527527,0.3844654232580427,61,90.14936228033577
10,2.7627627627627627,0.3314281286816979,61,90.14936228033577
10,2.7727727727727727,0.2862087251415066,61,90.14936228033577
10,2.7827827827827827,0.2350974119673717,61,90.14936228033577
10,2.7927927927927927,0.2033171457492495,61,90.14936228033577
10,2.8028028028028027,0.152375373367424,61,90.14936228033577
10,2.8128128128128127,0.1215302882808051,61,90.14936228033577
10,2.8228228228228227,0.0941602076381365,61,90.14936228033577
10,2.8328328328328327,0.0754706247928437,61,90.14936228033577
10,2.8428428428428427,0.0489117447669555,61,90.14936228033577
10,2.8528528528528527,0.0356646487009331,61,90.14936228033577
10,2.8628628628628627,0.0199949352841866,61,90.14936228033577
10,2.8728728728728727,0.0138849264106693,61,90.14936228033577
10,2.8828828828828827,0.0064657715294934,61,90.14936228033577
10,2.8928928928928928,0.0055279236205722,61,90.14936228033577
10,2.9029029029029028,0.0119187394117817,61,90.14936228033577
10,2.9129129129129128,0.0032153528861339,61,90.14936228033577
10,2.9229229229229228,-0.0033325313836893,61,90.14936228033577
10,2.932932932932933,-0.0052193113335229,61,90.14936228033577
10,2.942942942942943,-0.004151349108222,61,90.14936228033577
10,2.952952952952953,-0.0093770104472951,61,90.14936228033577
10,2.962962962962963,-0.0120663255023262,61,90.14936228033577
10,2.972972972972973,-0.027553498636958,61,90.14936228033577
10,2.982982982982983,-0.0341671849888517,61,90.14936228033577
10,2.992992992992993,-0.0527905528333589,61,90.14936228033577
10,3.003003003003003,-0.080711979269075,61,90.14936228033577
10,3.013013013013013,-0.1151973518598822,61,90.14936228033577
10,3.023023023023023,-0.1323820669674918,61,90.14936228033577
10,3.033033033033033,-0.1656760933727824,61,90.14936228033577
10,3.043043043043043,-0.2050367733220034,61,90.14936228033577
10,3.053053053053053,-0.2555485013941852,61,90.14936228033577
10,3.063063063063063,-0.2940984351187247,61,90.14936228033577
10,3.073073073073073,-0.3362827403414301,61,90.14936228033577
10,3.083083083083083,-0.393444621113902,61,90.14936228033577
10,3.093093093093093,-0.4457535669163813,61,90.14936228033577
10,3.103103103103103,-0.4918171504388087,61,90.14936228033577
10,3.113113113113113,-0.5464356413625963,61,90.14936228033577
10,3.123123123123123,-0.5894129641503687,61,90.14936228033577
10,3.133133133133133,-0.6439221033234844,61,90.14936228033577
10,3.143143143143143,-0.6697665960823009,61,90.14936228033577
10,3.153153153153153,-0.7095865956765358,61,90.14936228033577
10,3.163163163163163,-0.7367301142391166,61,90.14936228033577
10,3.173173173173173,-0.7644904564303676,61,90.14936228033577
10,3.183183183183183,-0.7792324003760539,61,90.14936228033577
10,3.193193193193193,-0.7748374821401846,61,90.14936228033577
10,3.203203203203203,-0.780091254670163,61,90.14936228033577
10,3.2132132132132134,-0.7674217186470597,61,90.14936228033577
10,3.2232232232232234,-0.7377440986089867,61,90.14936228033577
10,3.2332332332332334,-0.7117104242695326,61,90.14936228033577
10,3.2432432432432434,-0.6693317589025297,61,90.14936228033577
10,3.253253253253253,-0.6160292142427647,61,90.14936228033577
10,3.2632632632632634,-0.5696068593762936,61,90.14936228033577
10,3.273273273273273,-0.5069408025173628,61,90.14936228033577
10,3.2832832832832834,-0.4259313860937229,61,90.14936228033577
10,3.293293293293293,-0.3420503995836498,61,90.14936228033577
10,3.3033033033033035,-0.2662813697825489,61,90.14936228033577
10,3.313313313313313,-0.1820840733514209,61,90.14936228033577
10,3.3233233233233235,-0.0962669079831689,61,90.14936228033577
10,3.333333333333333,0.0056941997525048,61,90.14936228033577
10,3.3433433433433435,0.0864108513363494,61,90.14936228033577
10,3.353353353353353,0.1735749494906032,61,90.14936228033577
10,3.3633633633633635,0.2646891352382295,61,90.14936228033577
10,3.373373373373373,0.3456434301004894,61,90.14936228033577
10,3.3833833833833835,0.4275296101443073,61,90.14936228033577
10,3.393393393393393,0.4928748640998892,61,90.14936228033577
10,3.4034034034034035,0.5692540407070652,61,90.14936228033577
10,3.413413413413413,0.6227867983872087,61,90.14936228033577
10,3.4234234234234235,0.6639577134875638,61,90.14936228033577
10,3.433433433433433,0.7091979425941728,61,90.14936228033577
10,3.443443443443444,0.7437237037654396,61,90.14936228033577
10,3.4534534534534536,0.7603709441217363,61,90.14936228033577
10,3.463463463463464,0.7788128742619465,61,90.14936228033577
10,3.4734734734734736,0.7761080850692648,61,90.14936228033577
10,3.483483483483484,0.771979868670329,61,90.14936228033577
10,3.4934934934934936,0.7684578983472041,61,90.14936228033577
10,3.503503503503504,0.7441148065827783,61,90.14936228033577
10,3.5135135135135136,0.7036670585068794,61,90.14936228033577
10,3.523523523523524,0.6651572255531625,61,90.14936228033577
10,3.5335335335335336,0.6376001785895875,61,90.14936228033577
10,3.543543543543544,0.5924715318783154,61,90.14936228033577
10,3.5535535535535536,0.5390490263518956,61,90.14936228033577
10,3.563563563563564,0.497416810546666,61,90.14936228033577
10,3.5735735735735736,0.443302719476682,61,90.14936228033577
10,3.583583583583584,0.3929443150885377,61,90.14936228033577
10,3.5935935935935936,0.3473636233411817,61,90.14936228033577
10,3.603603603603604,0.2878322610752871,61,90.14936228033577
10,3.6136136136136137,0.2435705811342302,61,90.14936228033577
10,3.623623623623624,0.2103759749561298,61,90.14936228033577
10,3.6336336336336337,0.1652819234594268,61,90.14936228033577
10,3.643643643643644,0.1312727664002968,61,90.14936228033577
10,3.6536536536536537,0.1017694864104725,61,90.14936228033577
10,3.663663663663664,0.0708970224394967,61,90.14936228033577
10,3.6736736736736737,0.0569128005976586,61,90.14936228033577
10,3.683683683683684,0.0341583275747838,61,90.14936228033577
10,3.6936936936936937,0.0216116895940548,61,90.14936228033577
10,3.703703703703704,0.0097106731743773,61,90.14936228033577
10,3.7137137137137137,0.0044068955425573,61,90.14936228033577
10,3.723723723723724,-4.645263968929784e-06,61,90.14936228033577
10,3.7337337337337337,-0.0010014488712556,61,90.14936228033577
10,3.743743743743744,-0.0042479440584527,61,90.14936228033577
10,3.7537537537537538,-0.0018864135846567,61,90.14936228033577
10,3.763763763763764,0.0034768001546615,61,90.14936228033577
10,3.7737737737737738,-0.0101307339830338,61,90.14936228033577
10,3.783783783783784,0.0003901739997442,61,90.14936228033577
10,3.793793793793794,-0.0095251761385912,61,90.14936228033577
10,3.803803803803804,-0.009258171404076,61,90.14936228033577
10,3.813813813813814,-0.0354611774871307,61,90.14936228033577
10,3.823823823823824,-0.0441887469065819,61,90.14936228033577
10,3.833833833833834,-0.0639858210578432,61,90.14936228033577
10,3.843843843843844,-0.0903941755346747,61,90.14936228033577
10,3.853853853853854,-0.1300886139281964,61,90.14936228033577
10,3.863863863863864,-0.1473411756761889,61,90.14936228033577
10,3.873873873873874,-0.1940210287630872,61,90.14936228033577
10,3.883883883883884,-0.2395323902570758,61,90.14936228033577
10,3.893893893893894,-0.2835441217916953,61,90.14936228033577
10,3.903903903903904,-0.3354471722332959,61,90.14936228033577
10,3.913913913913914,-0.3849532520863021,61,90.14936228033577
10,3.923923923923924,-0.4345997177818994,61,90.14936228033577
10,3.933933933933934,-0.4773134480466914,61,90.14936228033577
10,3.943943943943944,-0.5285985963121616,61,90.14936228033577
10,3.953953953953954,-0.578095650942707,61,90.14936228033577
10,3.963963963963964,-0.627603932557045,61,90.14936228033577
10,3.973973973973974,-0.6669915717375439,61,90.14936228033577
10,3.983983983983984,-0.7037549527479531,61,90.14936228033577
10,3.993993993993994,-0.7328646148028896,61,90.14936228033577
10,4.004004004004004,-0.7500366092061836,61,90.14936228033577
10,4.014014014014014,-0.7724773328926575,61,90.14936228033577
10,4.024024024024024,-0.7840619245848448,61,90.14936228033577
10,4.034034034034034,-0.7804854455329329,61,90.14936228033577
10,4.044044044044044,-0.7695028467677892,61,90.14936228033577
10,4.054054054054054,-0.743819123198621,61,90.14936228033577
10,4.064064064064064,-0.7156410243424964,61,90.14936228033577
10,4.074074074074074,-0.6757063764585043,61,90.14936228033577
10,4.084084084084084,-0.6316361755022768,61,90.14936228033577
10,4.094094094094094,-0.5743509530769916,61,90.14936228033577
10,4.104104104104104,-0.5137121582249792,61,90.14936228033577
10,4.114114114114114,-0.4461333676777207,61,90.14936228033577
10,4.124124124124124,-0.3693628354823862,61,90.14936228033577
10,4.134134134134134,-0.2915913595394105,61,90.14936228033577
10,4.144144144144144,-0.1942167218856362,61,90.14936228033577
10,4.1541541541541545,-0.1132446746682766,61,90.14936228033577
10,4.1641641641641645,-0.0299160199433799,61,90.14936228033577
10,4.174174174174175,0.0667480644179943,61,90.14936228033577
10,4.1841841841841845,0.1569573449297064,61,90.14936228033577
10,4.1941941941941945,0.2475439413921035,61,90.14936228033577
10,4.2042042042042045,0.3276768119546813,61,90.14936228033577
10,4.214214214214215,0.3990319946386652,61,90.14936228033577
10,4.2242242242242245,0.477597248520981,61,90.14936228033577
10,4.2342342342342345,0.5386960421258143,61,90.14936228033577
10,4.2442442442442445,0.6081441078012889,61,90.14936228033577
10,4.254254254254255,0.6741293499813488,61,90.14936228033577
10,4.2642642642642645,0.7063401969217112,61,90.14936228033577
10,4.2742742742742745,0.7352631625459288,61,90.14936228033577
10,4.2842842842842845,0.759370077573694,61,90.14936228033577
10,4.294294294294295,0.7780835211276272,61,90.14936228033577
10,4.3043043043043046,0.7758523504678989,61,90.14936228033577
10,4.314314314314315,0.7762527817285144,61,90.14936228033577
10,4.324324324324325,0.7633669485760032,61,90.14936228033577
10,4.334334334334335,0.7462804670300165,61,90.14936228033577
10,4.344344344344345,0.7225230440079154,61,90.14936228033577
10,4.354354354354355,0.6888588249096792,61,90.14936228033577
10,4.364364364364365,0.6375581594729658,61,90.14936228033577
10,4.374374374374375,0.6073550812809975,61,90.14936228033577
10,4.384384384384385,0.5564498257897901,61,90.14936228033577
10,4.394394394394395,0.5090256734607995,61,90.14936228033577
10,4.404404404404405,0.4544624848401917,61,90.14936228033577
10,4.414414414414415,0.4035262497751847,61,90.14936228033577
10,4.424424424424425,0.3554706717805863,61,90.14936228033577
10,4.434434434434435,0.3067148043809463,61,90.14936228033577
10,4.444444444444445,0.2618081022858816,61,90.14936228033577
10,4.454454454454455,0.2086570376370813,61,90.14936228033577
10,4.464464464464465,0.1801948546727668,61,90.14936228033577
10,4.474474474474475,0.1438192501859079,61,90.14936228033577
10,4.484484484484485,0.1029981311922049,61,90.14936228033577
10,4.494494494494495,0.0757658923598874,61,90.14936228033577
10,4.504504504504505,0.0623424389997381,61,90.14936228033577
10,4.514514514514515,0.0473983706432861,61,90.14936228033577
10,4.524524524524525,0.0183208724708998,61,90.14936228033577
10,4.534534534534535,0.0121249464344273,61,90.14936228033577
10,4.544544544544545,0.0124259276380212,61,90.14936228033577
10,4.554554554554555,0.0100987563214087,61,90.14936228033577
10,4.564564564564565,0.0082987393529921,61,90.14936228033577
10,4.574574574574575,-0.0083462296198491,61,90.14936228033577
10,4.584584584584585,-0.0047551006922079,61,90.14936228033577
10,4.594594594594595,0.0059609132409904,61,90.14936228033577
10,4.604604604604605,-0.006071075059126,61,90.14936228033577
10,4.614614614614615,-0.0042903762061887,61,90.14936228033577
10,4.624624624624625,-0.0160984268213239,61,90.14936228033577
10,4.634634634634635,-0.0109042287088255,61,90.14936228033577
10,4.644644644644645,-0.041133147925471,61,90.14936228033577
10,4.654654654654655,-0.0394388688251229,61,90.14936228033577
10,4.664664664664665,-0.0659669197543191,61,90.14936228033577
10,4.674674674674675,-0.0962006780932225,61,90.14936228033577
10,4.684684684684685,-0.1165748943605795,61,90.14936228033577
10,4.694694694694695,-0.1496579671125618,61,90.14936228033577
10,4.704704704704705,-0.1895978551005183,61,90.14936228033577
10,4.714714714714715,-0.2290390610896832,61,90.14936228033577
10,4.724724724724725,-0.2643482283002871,61,90.14936228033577
10,4.734734734734735,-0.3186290876980974,61,90.14936228033577
10,4.744744744744745,-0.3696300596136117,61,90.14936228033577
10,4.754754754754755,-0.4178114222114613,61,90.14936228033577
10,4.764764764764765,-0.4597250818100641,61,90.14936228033577
10,4.774774774774775,-0.5327109151316605,61,90.14936228033577
10,4.784784784784785,-0.572296248420685,61,90.14936228033577
10,4.794794794794795,-0.615316050435638,61,90.14936228033577
10,4.804804804804805,-0.6555553646434841,61,90.14936228033577
10,4.814814814814815,-0.7027805430176627,61,90.14936228033577
10,4.824824824824825,-0.722495029616623,61,90.14936228033577
10,4.834834834834835,-0.7501202184505608,61,90.14936228033577
10,4.844844844844845,-0.7674025705303873,61,90.14936228033577
10,4.854854854854855,-0.7822438535118017,61,90.14936228033577
10,4.864864864864865,-0.783830851763921,61,90.14936228033577
10,4.874874874874875,-0.7706287740448788,61,90.14936228033577
10,4.884884884884885,-0.7520502979340398,61,90.14936228033577
10,4.894894894894895,-0.7194510579738578,61,90.14936228033577
10,4.904904904904905,-0.6847783051368825,61,90.14936228033577
10,4.914914914914915,-0.6460297197297044,61,90.14936228033577
10,4.924924924924925,-0.5867180433916696,61,90.14936228033577
10,4.934934934934935,-0.5331423491262025,61,90.14936228033577
10,4.944944944944945,-0.4671673770823043,61,90.14936228033577
10,4.954954954954955,-0.3837386297991194,61,90.14936228033577
10,4.964964964964965,-0.3154158266011743,61,90.14936228033577
10,4.974974974974975,-0.2264531984728872,61,90.14936228033577
10,4.984984984984985,-0.1371472073401636,61,90.14936228033577
10,4.994994994994995,-0.0500022221602238,61,90.14936228033577
10,5.005005005005005,0.0552023916772367,61,90.14936228033577
10,5.015015015015015,0.1426237641523393,61,90.14936228033577
10,5.025025025025025,0.2147203831521484,61,90.14936228033577
10,5.035035035035035,0.3093853151346558,61,90.14936228033577
10,5.045045045045045,0.3951790951959542,61,90.14936228033577
10,5.055055055055055,0.4594330211616672,61,90.14936228033577
10,5.065065065065065,0.5346176578238955,61,90.14936228033577
10,5.075075075075075,0.5971494006879073,61,90.14936228033577
10,5.085085085085085,0.6413971397956485,61,90.14936228033577
10,5.095095095095095,0.6838615794547216,61,90.14936228033577
10,5.105105105105105,0.7346395352302867,61,90.14936228033577
10,5.115115115115115,0.7477986035417709,61,90.14936228033577
10,5.125125125125125,0.7694203922058673,61,90.14936228033577
10,5.135135135135135,0.7791196403422391,61,90.14936228033577
10,5.145145145145145,0.7773617301595961,61,90.14936228033577
10,5.155155155155155,0.778149269456421,61,90.14936228033577
10,5.165165165165165,0.7586248354754519,61,90.14936228033577
10,5.175175175175175,0.7217066079524019,61,90.14936228033577
10,5.185185185185185,0.688421870151752,61,90.14936228033577
10,5.195195195195195,0.6482180064404137,61,90.14936228033577
10,5.205205205205205,0.6155492843204025,61,90.14936228033577
10,5.215215215215215,0.5779916847611646,61,90.14936228033577
10,5.225225225225225,0.516076017580198,61,90.14936228033577
10,5.235235235235235,0.4698504036522776,61,90.14936228033577
10,5.245245245245245,0.4266486089628822,61,90.14936228033577
10,5.255255255255255,0.3680364423974692,61,90.14936228033577
10,5.265265265265265,0.3172314597794322,61,90.14936228033577
10,5.275275275275275,0.2788513533514528,61,90.14936228033577
10,5.285285285285285,0.2277015987311799,61,90.14936228033577
10,5.295295295295295,0.1890151546769947,61,90.14936228033577
10,5.305305305305305,0.1503793108679829,61,90.14936228033577
10,5.315315315315315,0.1234554396008023,61,90.14936228033577
10,5.325325325325325,0.0912805279662686,61,90.14936228033577
10,5.335335335335335,0.0605180116619344,61,90.14936228033577
10,5.345345345345345,0.0480028773811448,61,90.14936228033577
10,5.355355355355355,0.0387819692762555,61,90.14936228033577
10,5.365365365365365,0.0155914101874917,61,90.14936228033577
10,5.375375375375375,0.0041559056075998,61,90.14936228033577
10,5.385385385385385,0.0060811275160329,61,90.14936228033577
10,5.395395395395395,-0.0010256994288675,61,90.14936228033577
10,5.405405405405405,-0.0091178840087273,61,90.14936228033577
10,5.415415415415415,-0.0003773103006113,61,90.14936228033577
10,5.425425425425425,-0.0044610877543946,61,90.14936228033577
10,5.435435435435435,-0.0079219607855379,61,90.14936228033577
10,5.445445445445445,-0.0075421198623004,61,90.14936228033577
10,5.455455455455455,-0.006172178627704,61,90.14936228033577
10,5.465465465465465,-0.0164791736931537,61,90.14936228033577
10,5.475475475475475,-0.0268669976068955,61,90.14936228033577
10,5.485485485485485,-0.0424114456608281,61,90.14936228033577
10,5.495495495495495,-0.0541745619432017,61,90.14936228033577
10,5.505505505505505,-0.0827938162937838,61,90.14936228033577
10,5.515515515515515,-0.0996386268153092,61,90.14936228033577
10,5.525525525525525,-0.1450357991517742,61,90.14936228033577
10,5.535535535535535,-0.1807088930938668,61,90.14936228033577
10,5.545545545545545,-0.2196247279696306,61,90.14936228033577
10,5.555555555555555,-0.2549300490117933,61,90.14936228033577
10,5.565565565565565,-0.3087755349048106,61,90.14936228033577
10,5.575575575575575,-0.3591255196727796,61,90.14936228033577
10,5.585585585585585,-0.4030600658604689,61,90.14936228033577
10,5.595595595595595,-0.4534186631981002,61,90.14936228033577
10,5.605605605605605,-0.5104717315267341,61,90.14936228033577
10,5.615615615615615,-0.5598152607591835,61,90.14936228033577
10,5.625625625625625,-0.6018338349198118,61,90.14936228033577
10,5.635635635635635,-0.6423627395747732,61,90.14936228033577
10,5.645645645645645,-0.6854570668923062,61,90.14936228033577
10,5.655655655655655,-0.7151232284781294,61,90.14936228033577
10,5.665665665665665,-0.7513221446714118,61,90.14936228033577
10,5.675675675675675,-0.7640753080934685,61,90.14936228033577
10,5.685685685685685,-0.7762598875144571,61,90.14936228033577
10,5.695695695695696,-0.7765722034397077,61,90.14936228033577
10,5.7057057057057055,-0.7710275416481402,61,90.14936228033577
10,5.715715715715716,-0.7521284952822678,61,90.14936228033577
10,5.7257257257257255,-0.7458220917006467,61,90.14936228033577
10,5.735735735735736,-0.6997964330894038,61,90.14936228033577
10,5.7457457457457455,-0.6482973532342845,61,90.14936228033577
10,5.755755755755756,-0.6190465015867921,61,90.14936228033577
10,5.7657657657657655,-0.5495049872505461,61,90.14936228033577
10,5.775775775775776,-0.4719810730105357,61,90.14936228033577
10,5.7857857857857855,-0.4109599399619945,61,90.14936228033577
10,5.795795795795796,-0.3324119004227939,61,90.14936228033577
10,5.8058058058058055,-0.2418945870948643,61,90.14936228033577
10,5.815815815815816,-0.1589074208591201,61,90.14936228033577
10,5.8258258258258255,-0.0719534864458878,61,90.14936228033577
10,5.835835835835836,0.0266789038705935,61,90.14936228033577
10,5.8458458458458455,0.1109181107677888,61,90.14936228033577
10,5.855855855855856,0.194267098664926,61,90.14936228033577
10,5.865865865865866,0.2894271213974855,61,90.14936228033577
10,5.875875875875876,0.371123334675964,61,90.14936228033577
10,5.885885885885886,0.4471924119810141,61,90.14936228033577
10,5.895895895895896,0.5164679623546912,61,90.14936228033577
10,5.905905905905906,0.5714365144865944,61,90.14936228033577
10,5.915915915915916,0.6308151086545719,61,90.14936228033577
10,5.925925925925926,0.6814456573105724,61,90.14936228033577
10,5.935935935935936,0.7188304853375649,61,90.14936228033577
10,5.945945945945946,0.7476775905876951,61,90.14936228033577
10,5.955955955955956,0.7728626562296705,61,90.14936228033577
10,5.965965965965966,0.7773954582186012,61,90.14936228033577
10,5.975975975975976,0.7777372261196913,61,90.14936228033577
10,5.985985985985986,0.7716052849672654,61,90.14936228033577
10,5.995995995995996,0.7496389171217035,61,90.14936228033577
10,6.006006006006006,0.7271136687074459,61,90.14936228033577
10,6.016016016016016,0.698472059921751,61,90.14936228033577
10,6.026026026026026,0.6613805557454472,61,90.14936228033577
10,6.036036036036036,0.6187291820693269,61,90.14936228033577
10,6.046046046046046,0.5759296548476041,61,90.14936228033577
10,6.056056056056056,0.5288015393848882,61,90.14936228033577
10,6.066066066066066,0.4789920171285844,61,90.14936228033577
10,6.076076076076076,0.4297961578015584,61,90.14936228033577
10,6.086086086086086,0.3827106770735074,61,90.14936228033577
10,6.096096096096096,0.3271422677157346,61,90.14936228033577
10,6.106106106106106,0.2822774168994548,61,90.14936228033577
10,6.116116116116116,0.2438605001338824,61,90.14936228033577
10,6.126126126126126,0.1941465356304064,61,90.14936228033577
10,6.136136136136136,0.1476676906514372,61,90.14936228033577
10,6.146146146146146,0.1199244959581353,61,90.14936228033577
10,6.156156156156156,0.0883832859957784,61,90.14936228033577
10,6.166166166166166,0.0683639751762794,61,90.14936228033577
10,6.176176176176176,0.0528995854575321,61,90.14936228033577
10,6.186186186186186,0.0283334651980339,61,90.14936228033577
10,6.196196196196196,0.0174271548112501,61,90.14936228033577
10,6.206206206206206,0.0112373877213641,61,90.14936228033577
10,6.216216216216216,0.0074937390826598,61,90.14936228033577
10,6.226226226226226,0.0019528243129178,61,90.14936228033577
10,6.236236236236236,-0.0056030082976909,61,90.14936228033577
10,6.246246246246246,0.0020694461392909,61,90.14936228033577
10,6.256256256256256,0.0004419997331845,61,90.14936228033577
10,6.266266266266266,-0.0029157382643024,61,90.14936228033577
10,6.276276276276276,-0.0007074336250915,61,90.14936228033577
10,6.286286286286286,-0.011764201895003,61,90.14936228033577
10,6.296296296296296,-0.0076600217553936,61,90.14936228033577
10,6.306306306306306,-0.0252287291012222,61,90.14936228033577
10,6.316316316316316,-0.0375855605832287,61,90.14936228033577
10,6.326326326326326,-0.0497711106126238,61,90.14936228033577
10,6.336336336336336,-0.0725972874195444,61,90.14936228033577
10,6.346346346346346,-0.1035242724073064,61,90.14936228033577
10,6.356356356356356,-0.1367249018240195,61,90.14936228033577
10,6.366366366366366,-0.1618827522859829,61,90.14936228033577
10,6.376376376376376,-0.2085114700958867,61,90.14936228033577
10,6.386386386386386,-0.2465338378180933,61,90.14936228033577
10,6.396396396396396,-0.3033550771732695,61,90.14936228033577
10,6.406406406406406,-0.3462627830867167,61,90.14936228033577
10,6.416416416416417,-0.3910663892787262,61,90.14936228033577
10,6.426426426426427,-0.4411962853231441,61,90.14936228033577
10,6.436436436436437,-0.4988356450598021,61,90.14936228033577
10,6.446446446446447,-0.5505880860385247,61,90.14936228033577
10,6.456456456456457,-0.589698028248449,61,90.14936228033577
10,6.466466466466467,-0.6315642142338499,61,90.14936228033577
10,6.476476476476477,-0.6702518797896088,61,90.14936228033577
10,6.486486486486487,-0.7069606327554572,61,90.14936228033577
10,6.496496496496497,-0.7357358659909625,61,90.14936228033577
10,6.506506506506507,-0.7637941258732831,61,90.14936228033577
10,6.516516516516517,-0.7680031534187822,61,90.14936228033577
10,6.526526526526527,-0.7843064926449496,61,90.14936228033577
10,6.536536536536537,-0.7774160641134341,61,90.14936228033577
10,6.546546546546547,-0.7611648365796225,61,90.14936228033577
10,6.556556556556557,-0.743168302568087,61,90.14936228033577
10,6.566566566566567,-0.7082951470316864,61,90.14936228033577
10,6.576576576576577,-0.6705371257628971,61,90.14936228033577
10,6.586586586586587,-0.6236928507458718,61,90.14936228033577
10,6.596596596596597,-0.5632116135404602,61,90.14936228033577
10,6.606606606606607,-0.49634071908213,61,90.14936228033577
10,6.616616616616617,-0.4313997964640756,61,90.14936228033577
10,6.626626626626627,-0.3403857476252282,61,90.14936228033577
10,6.636636636636637,-0.2650107147064973,61,90.14936228033577
10,6.646646646646647,-0.1750569233593202,61,90.14936228033577
10,6.656656656656657,-0.0965895278728643,61,90.14936228033577
10,6.666666666666667,0.0072017142342988,61,90.14936228033577
10,6.676676676676677,0.0970566655682345,61,90.14936228033577
10,6.686686686686687,0.177836878067132,61,90.14936228033577
10,6.696696696696697,0.2593518826400688,61,90.14936228033577
10,6.706706706706707,0.3461880788347781,61,90.14936228033577
10,6.716716716716717,0.4155926985599489,61,90.14936228033577
10,6.726726726726727,0.5043329747160288,61,90.14936228033577
10,6.736736736736737,0.5581199491188379,61,90.14936228033577
10,6.746746746746747,0.6228544035446454,61,90.14936228033577
10,6.756756756756757,0.6698121881606071,61,90.14936228033577
10,6.766766766766767,0.7099619093449451,61,90.14936228033577
10,6.776776776776777,0.7333523640487088,61,90.14936228033577
10,6.786786786786787,0.7742711485804239,61,90.14936228033577
10,6.796796796796797,0.7748680136553594,61,90.14936228033577
10,6.806806806806807,0.7763165463190452,61,90.14936228033577
10,6.816816816816817,0.7705156544820115,61,90.14936228033577
10,6.826826826826827,0.7617823538438878,61,90.14936228033577
10,6.836836836836837,0.7418377795204301,61,90.14936228033577
10,6.846846846846847,0.7046192604055899,61,90.14936228033577
10,6.856856856856857,0.6791825796642559,61,90.14936228033577
10,6.866866866866867,0.6260130629048841,61,90.14936228033577
10,6.876876876876877,0.5958262026601193,61,90.14936228033577
10,6.886886886886887,0.5429108827203044,61,90.14936228033577
10,6.896896896896897,0.4930232483374454,61,90.14936228033577
10,6.906906906906907,0.4521035394820304,61,90.14936228033577
10,6.916916916916917,0.3981364079022729,61,90.14936228033577
10,6.926926926926927,0.3478241247523383,61,90.14936228033577
10,6.936936936936937,0.2990435144491311,61,90.14936228033577
10,6.946946946946947,0.2480776315330964,61,90.14936228033577
10,6.956956956956957,0.2112040152835968,61,90.14936228033577
10,6.966966966966967,0.1685652600049521,61,90.14936228033577
10,6.976976976976977,0.1314592734350622,61,90.14936228033577
10,6.986986986986987,0.1033352381269363,61,90.14936228033577
10,6.996996996996997,0.0717979505229537,61,90.14936228033577
10,7.007007007007007,0.0581727540219445,61,90.14936228033577
10,7.017017017017017,0.0401252730125886,61,90.14936228033577
10,7.027027027027027,0.0222978354374938,61,90.14936228033577
10,7.037037037037037,0.0141995236278596,61,90.14936228033577
10,7.047047047047047,0.0020098515606501,61,90.14936228033577
10,7.057057057057057,-0.0036117581961546,61,90.14936228033577
10,7.067067067067067,0.0036080233466603,61,90.14936228033577
10,7.077077077077077,2.086193594238805e-05,61,90.14936228033577
10,7.087087087087087,0.0035216062178785,61,90.14936228033577
10,7.097097097097097,0.0007739128969126,61,90.14936228033577
10,7.107107107107107,-0.0049430855849889,61,90.14936228033577
10,7.117117117117117,0.0008204507284733,61,90.14936228033577
10,7.127127127127127,-0.0197786859111231,61,90.14936228033577
10,7.137137137137137,-0.0280599496902876,61,90.14936228033577
10,7.147147147147147,-0.0262003076488705,61,90.14936228033577
10,7.157157157157157,-0.0473999389299886,61,90.14936228033577
10,7.167167167167167,-0.0718084168632684,61,90.14936228033577
10,7.177177177177177,-0.0939487413359977,61,90.14936228033577
10,7.187187187187187,-0.1346480375427594,61,90.14936228033577
10,7.197197197197197,-0.1610507116515036,61,90.14936228033577
10,7.207207207207207,-0.1896464665561794,61,90.14936228033577
10,7.217217217217217,-0.2337242941407258,61,90.14936228033577
10,7.227227227227227,-0.2864524971976855,61,90.14936228033577
10,7.237237237237237,-0.3315864916770444,61,90.14936228033577
10,7.247247247247247,-0.3842878277319504,61,90.14936228033577
10,7.257257257257257,-0.4337357785916499,61,90.14936228033577
10,7.267267267267267,-0.4859563119282841,61,90.14936228033577
10,7.277277277277277,-0.5294443265666675,61,90.14936228033577
10,7.287287287287287,-0.575674182357072,61,90.14936228033577
10,7.297297297297297,-0.6269784627347976,61,90.14936228033577
10,7.307307307307307,-0.6631932650370543,61,90.14936228033577
10,7.317317317317317,-0.7040316616809937,61,90.14936228033577
10,7.327327327327327,-0.7326676764431892,61,90.14936228033577
10,7.337337337337337,-0.753119997682121,61,90.14936228033577
10,7.347347347347347,-0.7716512586766877,61,90.14936228033577
10,7.357357357357357,-0.7776164593677274,61,90.14936228033577
10,7.367367367367367,-0.7810666235863115,61,90.14936228033577
10,7.377377377377377,-0.7688524632700672,61,90.14936228033577
10,7.387387387387387,-0.7490401285081427,61,90.14936228033577
10,7.397397397397397,-0.7146149944942303,61,90.14936228033577
10,7.407407407407407,-0.6769892813613982,61,90.14936228033577
10,7.4174174174174174,-0.6412135365984329,61,90.14936228033577
10,7.4274274274274275,-0.5861421103623126,61,90.14936228033577
10,7.437437437437437,-0.5147011303549125,61,90.14936228033577
10,7.447447447447447,-0.4459659474265721,61,90.14936228033577
10,7.4574574574574575,-0.3656517723994096,61,90.14936228033577
10,7.4674674674674675,-0.2885558041397385,61,90.14936228033577
10,7.477477477477477,-0.1925416014592536,61,90.14936228033577
10,7.487487487487487,-0.1061978208316426,61,90.14936228033577
10,7.4974974974974975,-0.0214161979251107,61,90.14936228033577
10,7.5075075075075075,0.0624320892624286,61,90.14936228033577
10,7.517517517517517,0.1546745942974074,61,90.14936228033577
10,7.527527527527527,0.2501054910757074,61,90.14936228033577
10,7.5375375375375375,0.333356075969921,61,90.14936228033577
10,7.5475475475475475,0.4124472030667842,61,90.14936228033577
10,7.557557557557557,0.4753270024560198,61,90.14936228033577
10,7.567567567567567,0.5428504829544876,61,90.14936228033577
10,7.5775775775775776,0.6060669654956058,61,90.14936228033577
10,7.587587587587588,0.6587640302997141,61,90.14936228033577
10,7.597597597597598,0.697583689610514,61,90.14936228033577
10,7.607607607607608,0.7346906904842448,61,90.14936228033577
10,7.617617617617618,0.7634899841335394,61,90.14936228033577
10,7.627627627627628,0.7687729872928893,61,90.14936228033577
10,7.637637637637638,0.7788280394997987,61,90.14936228033577
10,7.647647647647648,0.7722514053998113,61,90.14936228033577
10,7.657657657657658,0.7595389665358101,61,90.14936228033577
10,7.667667667667668,0.7413465803547158,61,90.14936228033577
10,7.677677677677678,0.7257251641461808,61,90.14936228033577
10,7.687687687687688,0.6723440470446025,61,90.14936228033577
10,7.697697697697698,0.6521561963502568,61,90.14936228033577
10,7.707707707707708,0.605325080784819,61,90.14936228033577
10,7.717717717717718,0.5662575388267622,61,90.14936228033577
10,7.727727727727728,0.5065738662378152,61,90.14936228033577
10,7.737737737737738,0.4610184223186876,61,90.14936228033577
10,7.747747747747748,0.395699238842028,61,90.14936228033577
10,7.757757757757758,0.3486574673300895,61,90.14936228033577
10,7.767767767767768,0.3072923197235412,61,90.14936228033577
10,7.777777777777778,0.2548222023027752,61,90.14936228033577
10,7.787787787787788,0.2204786215539428,61,90.14936228033577
10,7.797797797797798,0.178040826080959,61,90.14936228033577
10,7.807807807807808,0.1418833765977773,61,90.14936228033577
10,7.817817817817818,0.1093557478679719,61,90.14936228033577
10,7.827827827827828,0.0778497700223281,61,90.14936228033577
10,7.837837837837838,0.0596952749809389,61,90.14936228033577
10,7.847847847847848,0.0411032737577809,61,90.14936228033577
10,7.857857857857858,0.0298927822468409,61,90.14936228033577
10,7.867867867867868,0.0123341708513882,61,90.14936228033577
10,7.877877877877878,0.0036241394480721,61,90.14936228033577
10,7.887887887887888,0.0001375592201672,61,90.14936228033577
10,7.897897897897898,0.0020983337014221,61,90.14936228033577
10,7.907907907907908,0.0069748018451458,61,90.14936228033577
10,7.917917917917918,0.0003823589913543,61,90.14936228033577
10,7.927927927927928,0.0019841031822915,61,90.14936228033577
10,7.937937937937938,-0.0052946454845884,61,90.14936228033577
10,7.947947947947948,-0.0107466120205314,61,90.14936228033577
10,7.957957957957958,-0.0119373600162989,61,90.14936228033577
10,7.967967967967968,-0.0188038439339385,61,90.14936228033577
10,7.977977977977978,-0.0328176386605413,61,90.14936228033577
10,7.987987987987988,-0.0440430929712299,61,90.14936228033577
10,7.997997997997998,-0.0633087638503815,61,90.14936228033577
10,8.008008008008009,-0.0773850857813494,61,90.14936228033577
10,8.018018018018019,-0.110582404954322,61,90.14936228033577
10,8.028028028028029,-0.1420261897330184,61,90.14936228033577
10,8.038038038038039,-0.1848562178729208,61,90.14936228033577
10,8.048048048048049,-0.2277821798564236,61,90.14936228033577
10,8.058058058058059,-0.2639369699096761,61,90.14936228033577
10,8.068068068068069,-0.3198789333945905,61,90.14936228033577
10,8.078078078078079,-0.3686633452002418,61,90.14936228033577
10,8.088088088088089,-0.4182135638091216,61,90.14936228033577
10,8.098098098098099,-0.4742730258306552,61,90.14936228033577
10,8.108108108108109,-0.5221950537760806,61,90.14936228033577
10,8.118118118118119,-0.5795534433318086,61,90.14936228033577
10,8.128128128128129,-0.608841983693052,61,90.14936228033577
10,8.138138138138139,-0.651711568297625,61,90.14936228033577
10,8.148148148148149,-0.7002327830548496,61,90.14936228033577
10,8.158158158158159,-0.7243878746325745,61,90.14936228033577
10,8.168168168168169,-0.7487296664297273,61,90.14936228033577
10,8.178178178178179,-0.7704447533581581,61,90.14936228033577
10,8.188188188188189,-0.7827470657823333,61,90.14936228033577
10,8.198198198198199,-0.7827586902976379,61,90.14936228033577
10,8.208208208208209,-0.7732828037908723,61,90.14936228033577
10,8.218218218218219,-0.7435369708500859,61,90.14936228033577
10,8.228228228228229,-0.7235164744750331,61,90.14936228033577
10,8.238238238238239,-0.6967846439642899,61,90.14936228033577
10,8.248248248248249,-0.6446635523643243,61,90.14936228033577
10,8.258258258258259,-0.5927967448797764,61,90.14936228033577
10,8.268268268268269,-0.5322147436132969,61,90.14936228033577
10,8.278278278278279,-0.4688558541036988,61,90.14936228033577
10,8.288288288288289,-0.3884667960316524,61,90.14936228033577
10,8.298298298298299,-0.313240696102512,61,90.14936228033577
10,8.308308308308309,-0.2190953415084527,61,90.14936228033577
10,8.318318318318319,-0.1297225216273207,61,90.14936228033577
10,8.328328328328329,-0.0434334538343956,61,90.14936228033577
10,8.338338338338339,0.0559851776610695,61,90.14936228033577
10,8.348348348348349,0.1435786603461278,61,90.14936228033577
10,8.358358358358359,0.2313853584744549,61,90.14936228033577
10,8.368368368368369,0.3153064392307116,61,90.14936228033577
10,8.378378378378379,0.3907143796690349,61,90.14936228033577
10,8.388388388388389,0.4596114861918798,61,90.14936228033577
10,8.398398398398399,0.5287576834866267,61,90.14936228033577
10,8.408408408408409,0.6002097167511796,61,90.14936228033577
10,8.418418418418419,0.6572584111202443,61,90.14936228033577
10,8.428428428428429,0.6904055139221419,61,90.14936228033577
10,8.438438438438439,0.7309658771139493,61,90.14936228033577
10,8.448448448448449,0.7476846643048902,61,90.14936228033577
10,8.458458458458459,0.764296655817246,61,90.14936228033577
10,8.468468468468469,0.7773481132123106,61,90.14936228033577
10,8.478478478478479,0.7712238982516757,61,90.14936228033577
10,8.488488488488489,0.7668460588632039,61,90.14936228033577
10,8.498498498498499,0.7546714476737844,61,90.14936228033577
10,8.508508508508509,0.7188164965438815,61,90.14936228033577
10,8.518518518518519,0.6961839653362115,61,90.14936228033577
10,8.528528528528529,0.6645732270755554,61,90.14936228033577
10,8.538538538538539,0.6136718178718138,61,90.14936228033577
10,8.548548548548549,0.5775270654818476,61,90.14936228033577
10,8.558558558558559,0.5168838851003118,61,90.14936228033577
10,8.568568568568569,0.4727012083267692,61,90.14936228033577
10,8.578578578578579,0.4123902665736647,61,90.14936228033577
10,8.588588588588589,0.3649390530637035,61,90.14936228033577
10,8.598598598598599,0.3197889063817639,61,90.14936228033577
10,8.608608608608609,0.2735259641187662,61,90.14936228033577
10,8.618618618618619,0.2267538587963969,61,90.14936228033577
10,8.62862862862863,0.1756525633340621,61,90.14936228033577
10,8.63863863863864,0.1354839328198629,61,90.14936228033577
10,8.64864864864865,0.1172615399043974,61,90.14936228033577
10,8.65865865865866,0.0873994930336765,61,90.14936228033577
10,8.66866866866867,0.0684759734578306,61,90.14936228033577
10,8.67867867867868,0.0422765337006345,61,90.14936228033577
10,8.68868868868869,0.027289277638838,61,90.14936228033577
10,8.6986986986987,0.012778664554551,61,90.14936228033577
10,8.70870870870871,0.0126454063254275,61,90.14936228033577
10,8.71871871871872,0.0158905714602668,61,90.14936228033577
10,8.72872872872873,0.0018450004633397,61,90.14936228033577
10,8.73873873873874,-0.0036548881060772,61,90.14936228033577
10,8.74874874874875,-0.0008751666167258,61,90.14936228033577
10,8.75875875875876,0.005570142377798,61,90.14936228033577
10,8.76876876876877,-0.0081343408544313,61,90.14936228033577
10,8.77877877877878,0.0048576753805616,61,90.14936228033577
10,8.78878878878879,-0.0156188182956518,61,90.14936228033577
10,8.7987987987988,-0.0156363517741355,61,90.14936228033577
10,8.80880880880881,-0.0297459273345901,61,90.14936228033577
10,8.81881881881882,-0.0348699217292937,61,90.14936228033577
10,8.82882882882883,-0.0562103017829243,61,90.14936228033577
10,8.83883883883884,-0.0727548406712687,61,90.14936228033577
10,8.84884884884885,-0.1196159152349921,61,90.14936228033577
10,8.85885885885886,-0.1374865531319242,61,90.14936228033577
10,8.86886886886887,-0.1734328223062831,61,90.14936228033577
10,8.87887887887888,-0.2084925726375451,61,90.14936228033577
10,8.88888888888889,-0.2502841467291664,61,90.14936228033577
10,8.8988988988989,-0.2952169070088632,61,90.14936228033577
10,8.90890890890891,-0.352099920103248,61,90.14936228033577
10,8.91891891891892,-0.3973064014523351,61,90.14936228033577
10,8.92892892892893,-0.4489532533443845,61,90.14936228033577
10,8.93893893893894,-0.5065075698757169,61,90.14936228033577
10,8.94894894894895,-0.5549294408925314,61,90.14936228033577
10,8.95895895895896,-0.6077519745326401,61,90.14936228033577
10,8.96896896896897,-0.6425945458344211,61,90.14936228033577
10,8.97897897897898,-0.6831131369877835,61,90.14936228033577
10,8.98898898898899,-0.7099803473012685,61,90.14936228033577
10,8.998998998999,-0.7513736426059007,61,90.14936228033577
10,9.00900900900901,-0.7629258974000036,61,90.14936228033577
10,9.01901901901902,-0.775247101289088,61,90.14936228033577
10,9.02902902902903,-0.7779587726101654,61,90.14936228033577
10,9.03903903903904,-0.7729654342733752,61,90.14936228033577
10,9.04904904904905,-0.7538067423301333,61,90.14936228033577
10,9.05905905905906,-0.7414747733245246,61,90.14936228033577
10,9.06906906906907,-0.699858416933367,61,90.14936228033577
10,9.07907907907908,-0.6584817577978508,61,90.14936228033577
10,9.08908908908909,-0.616032493601521,61,90.14936228033577
10,9.0990990990991,-0.5465400372799609,61,90.14936228033577
10,9.10910910910911,-0.4868864770281854,61,90.14936228033577
10,9.11911911911912,-0.4029188750964946,61,90.14936228033577
10,9.12912912912913,-0.3281011012838264,61,90.14936228033577
10,9.13913913913914,-0.2416439172384158,61,90.14936228033577
10,9.14914914914915,-0.1550874685088747,61,90.14936228033577
10,9.15915915915916,-0.0650672336052663,61,90.14936228033577
10,9.16916916916917,0.0224185700115091,61,90.14936228033577
10,9.17917917917918,0.1112971120910712,61,90.14936228033577
10,9.18918918918919,0.2023795184675775,61,90.14936228033577
10,9.1991991991992,0.2842982913472375,61,90.14936228033577
10,9.20920920920921,0.3736873969578769,61,90.14936228033577
10,9.21921921921922,0.4465751990875536,61,90.14936228033577
10,9.22922922922923,0.5213558464916211,61,90.14936228033577
10,9.23923923923924,0.5739389214928207,61,90.14936228033577
10,9.24924924924925,0.6314008486719844,61,90.14936228033577
10,9.25925925925926,0.6839169301646494,61,90.14936228033577
10,9.26926926926927,0.7259222569567529,61,90.14936228033577
10,9.27927927927928,0.7585047807131247,61,90.14936228033577
10,9.28928928928929,0.771499817879894,61,90.14936228033577
10,9.2992992992993,0.7766598918746382,61,90.14936228033577
10,9.30930930930931,0.7786023679822609,61,90.14936228033577
10,9.31931931931932,0.7697905731370676,61,90.14936228033577
10,9.32932932932933,0.7549874930337682,61,90.14936228033577
10,9.33933933933934,0.732919126268023,61,90.14936228033577
10,9.34934934934935,0.7050422545054307,61,90.14936228033577
10,9.35935935935936,0.6628257787873291,61,90.14936228033577
10,9.36936936936937,0.6288204510656988,61,90.14936228033577
10,9.37937937937938,0.582866355105436,61,90.14936228033577
10,9.38938938938939,0.5367382844347229,61,90.14936228033577
10,9.3993993993994,0.4764560690355566,61,90.14936228033577
10,9.40940940940941,0.434919230886665,61,90.14936228033577
10,9.41941941941942,0.3847860303871935,61,90.14936228033577
10,9.42942942942943,0.3296566392847927,61,90.14936228033577
10,9.43943943943944,0.2818468460090515,61,90.14936228033577
10,9.44944944944945,0.234028226871707,61,90.14936228033577
10,9.45945945945946,0.1996223462954264,61,90.14936228033577
10,9.46946946946947,0.1460438126640724,61,90.14936228033577
10,9.47947947947948,0.127778836374598,61,90.14936228033577
10,9.48948948948949,0.0934776759246685,61,90.14936228033577
10,9.4994994994995,0.0722872977017708,61,90.14936228033577
10,9.50950950950951,0.0474409002973818,61,90.14936228033577
10,9.51951951951952,0.0328429851889142,61,90.14936228033577
10,9.52952952952953,0.0255561609803621,61,90.14936228033577
10,9.53953953953954,0.0065642073627017,61,90.14936228033577
10,9.54954954954955,0.0082403737677989,61,90.14936228033577
10,9.55955955955956,0.0043052359357137,61,90.14936228033577
10,9.56956956956957,-0.0010121722679101,61,90.14936228033577
10,9.57957957957958,0.0014591796120886,61,90.14936228033577
10,9.58958958958959,0.0081585803809478,61,90.14936228033577
10,9.5995995995996,0.0040551418637295,61,90.14936228033577
10,9.60960960960961,0.0056497907947805,61,90.14936228033577
10,9.61961961961962,0.0006082495946952,61,90.14936228033577
10,9.62962962962963,-0.0085546350905894,61,90.14936228033577
10,9.63963963963964,-0.0204961470836314,61,90.14936228033577
10,9.64964964964965,-0.0397061877581087,61,90.14936228033577
10,9.65965965965966,-0.0539036529522723,61,90.14936228033577
10,9.66966966966967,-0.0729328366765839,61,90.14936228033577
10,9.67967967967968,-0.093219506917062,61,90.14936228033577
10,9.68968968968969,-0.1390591614170792,61,90.14936228033577
10,9.6996996996997,-0.1637832914632435,61,90.14936228033577
10,9.70970970970971,-0.1959781417754268,61,90.14936228033577
10,9.71971971971972,-0.2454425374231034,61,90.14936228033577
10,9.72972972972973,-0.2959378632737771,61,90.14936228033577
10,9.73973973973974,-0.3405558243055957,61,90.14936228033577
10,9.74974974974975,-0.4036823397442599,61,90.14936228033577
10,9.75975975975976,-0.4415694636111326,61,90.14936228033577
10,9.76976976976977,-0.4958978289034871,61,90.14936228033577
10,9.77977977977978,-0.5444010032119138,61,90.14936228033577
10,9.78978978978979,-0.6012476369502268,61,90.14936228033577
10,9.7997997997998,-0.6431022725172441,61,90.14936228033577
10,9.80980980980981,-0.6743660834618,61,90.14936228033577
10,9.81981981981982,-0.7133472993960832,61,90.14936228033577
10,9.82982982982983,-0.7437634742246662,61,90.14936228033577
10,9.83983983983984,-0.7600795687577083,61,90.14936228033577
10,9.84984984984985,-0.7756287305685522,61,90.14936228033577
10,9.85985985985986,-0.7799204196480859,61,90.14936228033577
10,9.86986986986987,-0.7847059557460171,61,90.14936228033577
10,9.87987987987988,-0.7624171624976201,61,90.14936228033577
10,9.88988988988989,-0.7362531333645443,61,90.14936228033577
10,9.8998998998999,-0.7086266464806815,61,90.14936228033577
10,9.90990990990991,-0.6655281393870612,61,90.14936228033577
10,9.91991991991992,-0.6227538216482127,61,90.14936228033577
10,9.92992992992993,-0.5616907396434095,61,90.14936228033577
10,9.93993993993994,-0.4945935896636213,61,90.14936228033577
10,9.94994994994995,-0.4175734155333886,61,90.14936228033577
10,9.95995995995996,-0.3604618681246806,61,90.14936228033577
10,9.96996996996997,-0.2655074292076588,61,90.14936228033577
10,9.97997997997998,-0.1751840296904995,61,90.14936228033577
10,9.98998998998999,-0.0823072218870545,61,90.14936228033577
10,10.0,0.0054495552640783,61,90.14936228033577
