Subject_ID,Time,PPG,HR,HRV
1,0.0,-0.004898437,71,37.985880255212365
1,0.01001001,0.091507098,71,37.985880255212365
1,0.02002002,0.178407415,71,37.985880255212365
1,0.03003003,0.268825421,71,37.985880255212365
1,0.04004004,0.347781398,71,37.985880255212365
1,0.05005005,0.429291846,71,37.985880255212365
1,0.06006006,0.49738848,71,37.985880255212365
1,0.07007007,0.563776291,71,37.985880255212365
1,0.08008008,0.627425168,71,37.985880255212365
1,0.09009009,0.668305576,71,37.985880255212365
1,0.1001001,0.706293913,71,37.985880255212365
1,0.11011011,0.746324889,71,37.985880255212365
1,0.12012012,0.762147915,71,37.985880255212365
1,0.13013013,0.774260062,71,37.985880255212365
1,0.14014014,0.772025719,71,37.985880255212365
1,0.15015015,0.770521572,71,37.985880255212365
1,0.16016016,0.764641605,71,37.985880255212365
1,0.17017017,0.743680874,71,37.985880255212365
1,0.18018018,0.714419796,71,37.985880255212365
1,0.19019019,0.668090583,71,37.985880255212365
1,0.2002002,0.635372389,71,37.985880255212365
1,0.21021021,0.594465315,71,37.985880255212365
1,0.22022022,0.54703015,71,37.985880255212365
1,0.23023023,0.498092748,71,37.985880255212365
1,0.24024024,0.449280054,71,37.985880255212365
1,0.25025025,0.401658999,71,37.985880255212365
1,0.26026026,0.346631745,71,37.985880255212365
1,0.27027027,0.290162494,71,37.985880255212365
1,0.28028028,0.258396147,71,37.985880255212365
1,0.29029029,0.204438259,71,37.985880255212365
1,0.3003003,0.159024675,71,37.985880255212365
1,0.31031031,0.13505954,71,37.985880255212365
1,0.32032032,0.099192523,71,37.985880255212365
1,0.33033033,0.066704722,71,37.985880255212365
1,0.34034034,0.068504485,71,37.985880255212365
1,0.35035035,0.024353318,71,37.985880255212365
1,0.36036036,0.016506512,71,37.985880255212365
1,0.37037037,0.016795692,71,37.985880255212365
1,0.38038038,0.007864593,71,37.985880255212365
1,0.39039039,-0.001427686,71,37.985880255212365
1,0.4004004,0.006355517,71,37.985880255212365
1,0.41041041,0.00427092,71,37.985880255212365
1,0.42042042,-0.001389927,71,37.985880255212365
1,0.43043043,-0.002148323,71,37.985880255212365
1,0.44044044,0.004987889,71,37.985880255212365
1,0.45045045,0.000217672,71,37.985880255212365
1,0.46046046,-0.0027593,71,37.985880255212365
1,0.47047047,-0.022228917,71,37.985880255212365
1,0.48048048,-0.031538275,71,37.985880255212365
1,0.49049049,-0.044893466,71,37.985880255212365
1,0.500500501,-0.07475525,71,37.985880255212365
1,0.510510511,-0.089230146,71,37.985880255212365
1,0.520520521,-0.130219167,71,37.985880255212365
1,0.530530531,-0.153526533,71,37.985880255212365
1,0.540540541,-0.188416277,71,37.985880255212365
1,0.550550551,-0.241158729,71,37.985880255212365
1,0.560560561,-0.266144071,71,37.985880255212365
1,0.570570571,-0.332580053,71,37.985880255212365
1,0.580580581,-0.376970798,71,37.985880255212365
1,0.590590591,-0.436850151,71,37.985880255212365
1,0.600600601,-0.482723615,71,37.985880255212365
1,0.610610611,-0.532078005,71,37.985880255212365
1,0.620620621,-0.590023141,71,37.985880255212365
1,0.630630631,-0.627616226,71,37.985880255212365
1,0.640640641,-0.661165289,71,37.985880255212365
1,0.650650651,-0.700001159,71,37.985880255212365
1,0.660660661,-0.730945562,71,37.985880255212365
1,0.670670671,-0.751040259,71,37.985880255212365
1,0.680680681,-0.776490442,71,37.985880255212365
1,0.690690691,-0.780254053,71,37.985880255212365
1,0.700700701,-0.771851197,71,37.985880255212365
1,0.710710711,-0.760818896,71,37.985880255212365
1,0.720720721,-0.752939472,71,37.985880255212365
1,0.730730731,-0.722898494,71,37.985880255212365
1,0.740740741,-0.684497119,71,37.985880255212365
1,0.750750751,-0.630100818,71,37.985880255212365
1,0.760760761,-0.573895238,71,37.985880255212365
1,0.770770771,-0.515045876,71,37.985880255212365
1,0.780780781,-0.446515836,71,37.985880255212365
1,0.790790791,-0.371717537,71,37.985880255212365
1,0.800800801,-0.284639005,71,37.985880255212365
1,0.810810811,-0.200169918,71,37.985880255212365
1,0.820820821,-0.109827728,71,37.985880255212365
1,0.830830831,-0.020468698,71,37.985880255212365
1,0.840840841,0.074267231,71,37.985880255212365
1,0.850850851,0.160030544,71,37.985880255212365
1,0.860860861,0.256946165,71,37.985880255212365
1,0.870870871,0.327779213,71,37.985880255212365
1,0.880880881,0.407856974,71,37.985880255212365
1,0.890890891,0.487566257,71,37.985880255212365
1,0.900900901,0.549003054,71,37.985880255212365
1,0.910910911,0.612833539,71,37.985880255212365
1,0.920920921,0.659601514,71,37.985880255212365
1,0.930930931,0.69712179,71,37.985880255212365
1,0.940940941,0.732744778,71,37.985880255212365
1,0.950950951,0.756958791,71,37.985880255212365
1,0.960960961,0.774308983,71,37.985880255212365
1,0.970970971,0.771756797,71,37.985880255212365
1,0.980980981,0.775113802,71,37.985880255212365
1,0.990990991,0.757983636,71,37.985880255212365
1,1.001001001,0.754021112,71,37.985880255212365
1,1.011011011,0.713671237,71,37.985880255212365
1,1.021021021,0.688230581,71,37.985880255212365
1,1.031031031,0.644912654,71,37.985880255212365
1,1.041041041,0.597348431,71,37.985880255212365
1,1.051051051,0.564229813,71,37.985880255212365
1,1.061061061,0.509481798,71,37.985880255212365
1,1.071071071,0.456041241,71,37.985880255212365
1,1.081081081,0.404482881,71,37.985880255212365
1,1.091091091,0.344340285,71,37.985880255212365
1,1.101101101,0.308402046,71,37.985880255212365
1,1.111111111,0.254978835,71,37.985880255212365
1,1.121121121,0.206657919,71,37.985880255212365
1,1.131131131,0.168802014,71,37.985880255212365
1,1.141141141,0.151577943,71,37.985880255212365
1,1.151151151,0.109721385,71,37.985880255212365
1,1.161161161,0.076998572,71,37.985880255212365
1,1.171171171,0.060933198,71,37.985880255212365
1,1.181181181,0.040943406,71,37.985880255212365
1,1.191191191,0.028002803,71,37.985880255212365
1,1.201201201,0.010627567,71,37.985880255212365
1,1.211211211,0.009868615,71,37.985880255212365
1,1.221221221,0.008089695,71,37.985880255212365
1,1.231231231,-0.002145016,71,37.985880255212365
1,1.241241241,-0.006750625,71,37.985880255212365
1,1.251251251,0.005819259,71,37.985880255212365
1,1.261261261,0.005053172,71,37.985880255212365
1,1.271271271,0.001283886,71,37.985880255212365
1,1.281281281,-0.008554909,71,37.985880255212365
1,1.291291291,-0.012174095,71,37.985880255212365
1,1.301301301,-0.020528917,71,37.985880255212365
1,1.311311311,-0.022773193,71,37.985880255212365
1,1.321321321,-0.052707533,71,37.985880255212365
1,1.331331331,-0.052889057,71,37.985880255212365
1,1.341341341,-0.085581927,71,37.985880255212365
1,1.351351351,-0.110397186,71,37.985880255212365
1,1.361361361,-0.144424068,71,37.985880255212365
1,1.371371371,-0.180290734,71,37.985880255212365
1,1.381381381,-0.234456707,71,37.985880255212365
1,1.391391391,-0.265500926,71,37.985880255212365
1,1.401401401,-0.323359373,71,37.985880255212365
1,1.411411411,-0.36029977,71,37.985880255212365
1,1.421421421,-0.416992456,71,37.985880255212365
1,1.431431431,-0.473108666,71,37.985880255212365
1,1.441441441,-0.516345212,71,37.985880255212365
1,1.451451451,-0.568577171,71,37.985880255212365
1,1.461461461,-0.611242375,71,37.985880255212365
1,1.471471471,-0.652560611,71,37.985880255212365
1,1.481481481,-0.689247415,71,37.985880255212365
1,1.491491491,-0.731492188,71,37.985880255212365
1,1.501501502,-0.756360783,71,37.985880255212365
1,1.511511512,-0.760791408,71,37.985880255212365
1,1.521521522,-0.781756095,71,37.985880255212365
1,1.531531532,-0.778038819,71,37.985880255212365
1,1.541541542,-0.773004549,71,37.985880255212365
1,1.551551552,-0.75787613,71,37.985880255212365
1,1.561561562,-0.72696806,71,37.985880255212365
1,1.571571572,-0.688188803,71,37.985880255212365
1,1.581581582,-0.647510577,71,37.985880255212365
1,1.591591592,-0.595392504,71,37.985880255212365
1,1.601601602,-0.529503898,71,37.985880255212365
1,1.611611612,-0.4589752,71,37.985880255212365
1,1.621621622,-0.39874553,71,37.985880255212365
1,1.631631632,-0.303561979,71,37.985880255212365
1,1.641641642,-0.217338555,71,37.985880255212365
1,1.651651652,-0.130613685,71,37.985880255212365
1,1.661661662,-0.051982219,71,37.985880255212365
1,1.671671672,0.042954676,71,37.985880255212365
1,1.681681682,0.141345541,71,37.985880255212365
1,1.691691692,0.225644089,71,37.985880255212365
1,1.701701702,0.316900128,71,37.985880255212365
1,1.711711712,0.398323612,71,37.985880255212365
1,1.721721722,0.46348304,71,37.985880255212365
1,1.731731732,0.526085205,71,37.985880255212365
1,1.741741742,0.588565806,71,37.985880255212365
1,1.751751752,0.64970171,71,37.985880255212365
1,1.761761762,0.685585955,71,37.985880255212365
1,1.771771772,0.726681863,71,37.985880255212365
1,1.781781782,0.751530033,71,37.985880255212365
1,1.791791792,0.768198211,71,37.985880255212365
1,1.801801802,0.783994482,71,37.985880255212365
1,1.811811812,0.774795085,71,37.985880255212365
1,1.821821822,0.763015737,71,37.985880255212365
1,1.831831832,0.7479955,71,37.985880255212365
1,1.841841842,0.726582432,71,37.985880255212365
1,1.851851852,0.686820398,71,37.985880255212365
1,1.861861862,0.656679084,71,37.985880255212365
1,1.871871872,0.612863545,71,37.985880255212365
1,1.881881882,0.575434123,71,37.985880255212365
1,1.891891892,0.50962873,71,37.985880255212365
1,1.901901902,0.467352305,71,37.985880255212365
1,1.911911912,0.418222099,71,37.985880255212365
1,1.921921922,0.363627046,71,37.985880255212365
1,1.931931932,0.327342091,71,37.985880255212365
1,1.941941942,0.26820042,71,37.985880255212365
1,1.951951952,0.22207301,71,37.985880255212365
1,1.961961962,0.18816168,71,37.985880255212365
1,1.971971972,0.154750921,71,37.985880255212365
1,1.981981982,0.106530034,71,37.985880255212365
1,1.991991992,0.085348573,71,37.985880255212365
1,2.002002002,0.06397469,71,37.985880255212365
1,2.012012012,0.040275681,71,37.985880255212365
1,2.022022022,0.027649785,71,37.985880255212365
1,2.032032032,0.006003551,71,37.985880255212365
1,2.042042042,0.007963083,71,37.985880255212365
1,2.052052052,0.000390903,71,37.985880255212365
1,2.062062062,0.000901035,71,37.985880255212365
1,2.072072072,0.001678975,71,37.985880255212365
1,2.082082082,0.008947809,71,37.985880255212365
1,2.092092092,-0.001544871,71,37.985880255212365
1,2.102102102,-0.002671855,71,37.985880255212365
1,2.112112112,-0.000308092,71,37.985880255212365
1,2.122122122,-0.001392761,71,37.985880255212365
1,2.132132132,-0.01394209,71,37.985880255212365
1,2.142142142,-0.028242152,71,37.985880255212365
1,2.152152152,-0.040660128,71,37.985880255212365
1,2.162162162,-0.04964666,71,37.985880255212365
1,2.172172172,-0.0822376,71,37.985880255212365
1,2.182182182,-0.116148313,71,37.985880255212365
1,2.192192192,-0.146379949,71,37.985880255212365
1,2.202202202,-0.164663824,71,37.985880255212365
1,2.212212212,-0.220239894,71,37.985880255212365
1,2.222222222,-0.263928782,71,37.985880255212365
1,2.232232232,-0.302355402,71,37.985880255212365
1,2.242242242,-0.349920867,71,37.985880255212365
1,2.252252252,-0.405917967,71,37.985880255212365
1,2.262262262,-0.450834977,71,37.985880255212365
1,2.272272272,-0.507391811,71,37.985880255212365
1,2.282282282,-0.557999269,71,37.985880255212365
1,2.292292292,-0.608658547,71,37.985880255212365
1,2.302302302,-0.649629591,71,37.985880255212365
1,2.312312312,-0.68329881,71,37.985880255212365
1,2.322322322,-0.712294397,71,37.985880255212365
1,2.332332332,-0.760868646,71,37.985880255212365
1,2.342342342,-0.758837983,71,37.985880255212365
1,2.352352352,-0.776690797,71,37.985880255212365
1,2.362362362,-0.783402533,71,37.985880255212365
1,2.372372372,-0.772108605,71,37.985880255212365
1,2.382382382,-0.75369797,71,37.985880255212365
1,2.392392392,-0.731797913,71,37.985880255212365
1,2.402402402,-0.70587008,71,37.985880255212365
1,2.412412412,-0.664058995,71,37.985880255212365
1,2.422422422,-0.614827038,71,37.985880255212365
1,2.432432432,-0.549442151,71,37.985880255212365
1,2.442442442,-0.480201,71,37.985880255212365
1,2.452452452,-0.412850691,71,37.985880255212365
1,2.462462462,-0.335014044,71,37.985880255212365
1,2.472472472,-0.241329437,71,37.985880255212365
1,2.482482482,-0.157651846,71,37.985880255212365
1,2.492492492,-0.071513569,71,37.985880255212365
1,2.502502503,0.027721468,71,37.985880255212365
1,2.512512513,0.123686638,71,37.985880255212365
1,2.522522523,0.201958087,71,37.985880255212365
1,2.532532533,0.286382406,71,37.985880255212365
1,2.542542543,0.361329099,71,37.985880255212365
1,2.552552553,0.447079198,71,37.985880255212365
1,2.562562563,0.513195294,71,37.985880255212365
1,2.572572573,0.580080281,71,37.985880255212365
1,2.582582583,0.630109589,71,37.985880255212365
1,2.592592593,0.684745029,71,37.985880255212365
1,2.602602603,0.716238204,71,37.985880255212365
1,2.612612613,0.74592076,71,37.985880255212365
1,2.622622623,0.772435762,71,37.985880255212365
1,2.632632633,0.770911841,71,37.985880255212365
1,2.642642643,0.782794225,71,37.985880255212365
1,2.652652653,0.769352273,71,37.985880255212365
1,2.662662663,0.746545141,71,37.985880255212365
1,2.672672673,0.737435445,71,37.985880255212365
1,2.682682683,0.700883289,71,37.985880255212365
1,2.692692693,0.66572437,71,37.985880255212365
1,2.702702703,0.617463767,71,37.985880255212365
1,2.712712713,0.580291799,71,37.985880255212365
1,2.722722723,0.527029268,71,37.985880255212365
1,2.732732733,0.485345939,71,37.985880255212365
1,2.742742743,0.425990956,71,37.985880255212365
1,2.752752753,0.386731287,71,37.985880255212365
1,2.762762763,0.330999136,71,37.985880255212365
1,2.772772773,0.290012886,71,37.985880255212365
1,2.782782783,0.231802194,71,37.985880255212365
1,2.792792793,0.196526489,71,37.985880255212365
1,2.802802803,0.162948664,71,37.985880255212365
1,2.812812813,0.119482811,71,37.985880255212365
1,2.822822823,0.089237454,71,37.985880255212365
1,2.832832833,0.068624373,71,37.985880255212365
1,2.842842843,0.038653075,71,37.985880255212365
1,2.852852853,0.033523646,71,37.985880255212365
1,2.862862863,0.023881508,71,37.985880255212365
1,2.872872873,0.004906815,71,37.985880255212365
1,2.882882883,-0.001221477,71,37.985880255212365
1,2.892892893,0.00139814,71,37.985880255212365
1,2.902902903,0.009938993,71,37.985880255212365
1,2.912912913,0.006765441,71,37.985880255212365
1,2.922922923,-0.002945674,71,37.985880255212365
1,2.932932933,-0.000607572,71,37.985880255212365
1,2.942942943,-0.004974238,71,37.985880255212365
1,2.952952953,-0.013579113,71,37.985880255212365
1,2.962962963,-0.002360675,71,37.985880255212365
1,2.972972973,-0.019913077,71,37.985880255212365
1,2.982982983,-0.033634982,71,37.985880255212365
1,2.992992993,-0.05129836,71,37.985880255212365
1,3.003003003,-0.07875242,71,37.985880255212365
1,3.013013013,-0.099237076,71,37.985880255212365
1,3.023023023,-0.131239442,71,37.985880255212365
1,3.033033033,-0.175077766,71,37.985880255212365
1,3.043043043,-0.204056509,71,37.985880255212365
1,3.053053053,-0.250548271,71,37.985880255212365
1,3.063063063,-0.298880862,71,37.985880255212365
1,3.073073073,-0.340113113,71,37.985880255212365
1,3.083083083,-0.39557512,71,37.985880255212365
1,3.093093093,-0.44807976,71,37.985880255212365
1,3.103103103,-0.491108024,71,37.985880255212365
1,3.113113113,-0.549178066,71,37.985880255212365
1,3.123123123,-0.587242024,71,37.985880255212365
1,3.133133133,-0.639586302,71,37.985880255212365
1,3.143143143,-0.674037963,71,37.985880255212365
1,3.153153153,-0.719653556,71,37.985880255212365
1,3.163163163,-0.741142286,71,37.985880255212365
1,3.173173173,-0.759601795,71,37.985880255212365
1,3.183183183,-0.778640396,71,37.985880255212365
1,3.193193193,-0.775853812,71,37.985880255212365
1,3.203203203,-0.774449351,71,37.985880255212365
1,3.213213213,-0.762873988,71,37.985880255212365
1,3.223223223,-0.742975697,71,37.985880255212365
1,3.233233233,-0.709421167,71,37.985880255212365
1,3.243243243,-0.662673468,71,37.985880255212365
1,3.253253253,-0.613379172,71,37.985880255212365
1,3.263263263,-0.561696995,71,37.985880255212365
1,3.273273273,-0.492773491,71,37.985880255212365
1,3.283283283,-0.431284256,71,37.985880255212365
1,3.293293293,-0.344870689,71,37.985880255212365
1,3.303303303,-0.270178019,71,37.985880255212365
1,3.313313313,-0.179514963,71,37.985880255212365
1,3.323323323,-0.090322522,71,37.985880255212365
1,3.333333333,0.005252716,71,37.985880255212365
1,3.343343343,0.091477824,71,37.985880255212365
1,3.353353353,0.173423206,71,37.985880255212365
1,3.363363363,0.26539468,71,37.985880255212365
1,3.373373373,0.34836198,71,37.985880255212365
1,3.383383383,0.433038008,71,37.985880255212365
1,3.393393393,0.504323711,71,37.985880255212365
1,3.403403403,0.568203989,71,37.985880255212365
1,3.413413413,0.623314697,71,37.985880255212365
1,3.423423423,0.666273583,71,37.985880255212365
1,3.433433433,0.717275708,71,37.985880255212365
1,3.443443443,0.727800835,71,37.985880255212365
1,3.453453453,0.76443141,71,37.985880255212365
1,3.463463463,0.777806165,71,37.985880255212365
1,3.473473473,0.776780736,71,37.985880255212365
1,3.483483483,0.782741496,71,37.985880255212365
1,3.493493493,0.764451678,71,37.985880255212365
1,3.503503504,0.735930591,71,37.985880255212365
1,3.513513514,0.714705224,71,37.985880255212365
1,3.523523524,0.674114817,71,37.985880255212365
1,3.533533534,0.624517011,71,37.985880255212365
1,3.543543544,0.592472795,71,37.985880255212365
1,3.553553554,0.543456455,71,37.985880255212365
1,3.563563564,0.494141519,71,37.985880255212365
1,3.573573574,0.441074128,71,37.985880255212365
1,3.583583584,0.392867975,71,37.985880255212365
1,3.593593594,0.341314542,71,37.985880255212365
1,3.603603604,0.298504061,71,37.985880255212365
1,3.613613614,0.260220714,71,37.985880255212365
1,3.623623624,0.210185056,71,37.985880255212365
1,3.633633634,0.162869873,71,37.985880255212365
1,3.643643644,0.126071717,71,37.985880255212365
1,3.653653654,0.092267612,71,37.985880255212365
1,3.663663664,0.069229869,71,37.985880255212365
1,3.673673674,0.041333948,71,37.985880255212365
1,3.683683684,0.04234191,71,37.985880255212365
1,3.693693694,0.016253708,71,37.985880255212365
1,3.703703704,0.010393295,71,37.985880255212365
1,3.713713714,0.002030596,71,37.985880255212365
1,3.723723724,0.000849314,71,37.985880255212365
1,3.733733734,-0.002938156,71,37.985880255212365
1,3.743743744,-0.000206744,71,37.985880255212365
1,3.753753754,-0.00777195,71,37.985880255212365
1,3.763763764,-0.000804473,71,37.985880255212365
1,3.773773774,-0.00167445,71,37.985880255212365
1,3.783783784,-0.006592311,71,37.985880255212365
1,3.793793794,-0.013839106,71,37.985880255212365
1,3.803803804,-0.027761758,71,37.985880255212365
1,3.813813814,-0.032513993,71,37.985880255212365
1,3.823823824,-0.046093372,71,37.985880255212365
1,3.833833834,-0.071275201,71,37.985880255212365
1,3.843843844,-0.099762327,71,37.985880255212365
1,3.853853854,-0.117292923,71,37.985880255212365
1,3.863863864,-0.164709753,71,37.985880255212365
1,3.873873874,-0.194091481,71,37.985880255212365
1,3.883883884,-0.236897065,71,37.985880255212365
1,3.893893894,-0.282329139,71,37.985880255212365
1,3.903903904,-0.337516262,71,37.985880255212365
1,3.913913914,-0.385093186,71,37.985880255212365
1,3.923923924,-0.430146305,71,37.985880255212365
1,3.933933934,-0.480253595,71,37.985880255212365
1,3.943943944,-0.52789098,71,37.985880255212365
1,3.953953954,-0.589181485,71,37.985880255212365
1,3.963963964,-0.625181476,71,37.985880255212365
1,3.973973974,-0.662406409,71,37.985880255212365
1,3.983983984,-0.706216029,71,37.985880255212365
1,3.993993994,-0.727869943,71,37.985880255212365
1,4.004004004,-0.754793784,71,37.985880255212365
1,4.014014014,-0.773843234,71,37.985880255212365
1,4.024024024,-0.7820467,71,37.985880255212365
1,4.034034034,-0.778774266,71,37.985880255212365
1,4.044044044,-0.771737816,71,37.985880255212365
1,4.054054054,-0.748150282,71,37.985880255212365
1,4.064064064,-0.713138969,71,37.985880255212365
1,4.074074074,-0.685878374,71,37.985880255212365
1,4.084084084,-0.642124265,71,37.985880255212365
1,4.094094094,-0.580478175,71,37.985880255212365
1,4.104104104,-0.5235661,71,37.985880255212365
1,4.114114114,-0.447006843,71,37.985880255212365
1,4.124124124,-0.375894667,71,37.985880255212365
1,4.134134134,-0.288709933,71,37.985880255212365
1,4.144144144,-0.200266998,71,37.985880255212365
1,4.154154154,-0.101963099,71,37.985880255212365
1,4.164164164,-0.024063709,71,37.985880255212365
1,4.174174174,0.07163166,71,37.985880255212365
1,4.184184184,0.158341024,71,37.985880255212365
1,4.194194194,0.245297953,71,37.985880255212365
1,4.204204204,0.330468873,71,37.985880255212365
1,4.214214214,0.401630355,71,37.985880255212365
1,4.224224224,0.479636994,71,37.985880255212365
1,4.234234234,0.544858013,71,37.985880255212365
1,4.244244244,0.601607885,71,37.985880255212365
1,4.254254254,0.655804239,71,37.985880255212365
1,4.264264264,0.695320788,71,37.985880255212365
1,4.274274274,0.72422022,71,37.985880255212365
1,4.284284284,0.760671648,71,37.985880255212365
1,4.294294294,0.776384531,71,37.985880255212365
1,4.304304304,0.787657703,71,37.985880255212365
1,4.314314314,0.777248405,71,37.985880255212365
1,4.324324324,0.771777295,71,37.985880255212365
1,4.334334334,0.740495266,71,37.985880255212365
1,4.344344344,0.717623651,71,37.985880255212365
1,4.354354354,0.682159604,71,37.985880255212365
1,4.364364364,0.639489415,71,37.985880255212365
1,4.374374374,0.597480026,71,37.985880255212365
1,4.384384384,0.5537327,71,37.985880255212365
1,4.394394394,0.505009617,71,37.985880255212365
1,4.404404404,0.459026137,71,37.985880255212365
1,4.414414414,0.418049051,71,37.985880255212365
1,4.424424424,0.353142579,71,37.985880255212365
1,4.434434434,0.300409581,71,37.985880255212365
1,4.444444444,0.258314506,71,37.985880255212365
1,4.454454454,0.210279426,71,37.985880255212365
1,4.464464464,0.172326459,71,37.985880255212365
1,4.474474474,0.138107916,71,37.985880255212365
1,4.484484484,0.108201716,71,37.985880255212365
1,4.494494494,0.085988801,71,37.985880255212365
1,4.504504505,0.051789249,71,37.985880255212365
1,4.514514515,0.034443949,71,37.985880255212365
1,4.524524525,0.02753894,71,37.985880255212365
1,4.534534535,0.01721824,71,37.985880255212365
1,4.544544545,0.006654519,71,37.985880255212365
1,4.554554555,-0.001424949,71,37.985880255212365
1,4.564564565,0.000417546,71,37.985880255212365
1,4.574574575,0.007365884,71,37.985880255212365
1,4.584584585,-0.0021523,71,37.985880255212365
1,4.594594595,0.001256957,71,37.985880255212365
1,4.604604605,-0.001635505,71,37.985880255212365
1,4.614614615,-0.000334896,71,37.985880255212365
1,4.624624625,-0.007574999,71,37.985880255212365
1,4.634634635,-0.023274452,71,37.985880255212365
1,4.644644645,-0.029498077,71,37.985880255212365
1,4.654654655,-0.046214202,71,37.985880255212365
1,4.664664665,-0.063311725,71,37.985880255212365
1,4.674674675,-0.077940281,71,37.985880255212365
1,4.684684685,-0.111771175,71,37.985880255212365
1,4.694694695,-0.150654254,71,37.985880255212365
1,4.704704705,-0.184710326,71,37.985880255212365
1,4.714714715,-0.226310849,71,37.985880255212365
1,4.724724725,-0.272755629,71,37.985880255212365
1,4.734734735,-0.326619725,71,37.985880255212365
1,4.744744745,-0.36848823,71,37.985880255212365
1,4.754754755,-0.41720476,71,37.985880255212365
1,4.764764765,-0.476576106,71,37.985880255212365
1,4.774774775,-0.522992303,71,37.985880255212365
1,4.784784785,-0.570601684,71,37.985880255212365
1,4.794794795,-0.611786972,71,37.985880255212365
1,4.804804805,-0.648552106,71,37.985880255212365
1,4.814814815,-0.697448826,71,37.985880255212365
1,4.824824825,-0.728683153,71,37.985880255212365
1,4.834834835,-0.743367813,71,37.985880255212365
1,4.844844845,-0.765845508,71,37.985880255212365
1,4.854854855,-0.777117327,71,37.985880255212365
1,4.864864865,-0.781410751,71,37.985880255212365
1,4.874874875,-0.770176484,71,37.985880255212365
1,4.884884885,-0.741272632,71,37.985880255212365
1,4.894894895,-0.729267805,71,37.985880255212365
1,4.904904905,-0.687659415,71,37.985880255212365
1,4.914914915,-0.668317861,71,37.985880255212365
1,4.924924925,-0.598217662,71,37.985880255212365
1,4.934934935,-0.529698117,71,37.985880255212365
1,4.944944945,-0.469060204,71,37.985880255212365
1,4.954954955,-0.384959633,71,37.985880255212365
1,4.964964965,-0.311518235,71,37.985880255212365
1,4.974974975,-0.213083223,71,37.985880255212365
1,4.984984985,-0.129447481,71,37.985880255212365
1,4.994994995,-0.049391594,71,37.985880255212365
1,5.005005005,0.04837862,71,37.985880255212365
1,5.015015015,0.118588621,71,37.985880255212365
1,5.025025025,0.221966326,71,37.985880255212365
1,5.035035035,0.30052481,71,37.985880255212365
1,5.045045045,0.383854593,71,37.985880255212365
1,5.055055055,0.472132495,71,37.985880255212365
1,5.065065065,0.542842629,71,37.985880255212365
1,5.075075075,0.591705842,71,37.985880255212365
1,5.085085085,0.64680987,71,37.985880255212365
1,5.095095095,0.695312934,71,37.985880255212365
1,5.105105105,0.733138267,71,37.985880255212365
1,5.115115115,0.754252963,71,37.985880255212365
1,5.125125125,0.764237553,71,37.985880255212365
1,5.135135135,0.778508021,71,37.985880255212365
1,5.145145145,0.781541036,71,37.985880255212365
1,5.155155155,0.774146316,71,37.985880255212365
1,5.165165165,0.761955899,71,37.985880255212365
1,5.175175175,0.719507284,71,37.985880255212365
1,5.185185185,0.69047348,71,37.985880255212365
1,5.195195195,0.650049247,71,37.985880255212365
1,5.205205205,0.607543264,71,37.985880255212365
1,5.215215215,0.572174045,71,37.985880255212365
1,5.225225225,0.522396919,71,37.985880255212365
1,5.235235235,0.463170823,71,37.985880255212365
1,5.245245245,0.416152226,71,37.985880255212365
1,5.255255255,0.366244739,71,37.985880255212365
1,5.265265265,0.319957028,71,37.985880255212365
1,5.275275275,0.273687051,71,37.985880255212365
1,5.285285285,0.220087676,71,37.985880255212365
1,5.295295295,0.196135111,71,37.985880255212365
1,5.305305305,0.151132255,71,37.985880255212365
1,5.315315315,0.121314401,71,37.985880255212365
1,5.325325325,0.094289061,71,37.985880255212365
1,5.335335335,0.054912674,71,37.985880255212365
1,5.345345345,0.037407752,71,37.985880255212365
1,5.355355355,0.034597781,71,37.985880255212365
1,5.365365365,0.020198576,71,37.985880255212365
1,5.375375375,0.007598534,71,37.985880255212365
1,5.385385385,0.011301496,71,37.985880255212365
1,5.395395395,-0.004148922,71,37.985880255212365
1,5.405405405,0.002141921,71,37.985880255212365
1,5.415415415,0.004747625,71,37.985880255212365
1,5.425425425,-0.003883323,71,37.985880255212365
1,5.435435435,-0.009026119,71,37.985880255212365
1,5.445445445,-0.001377306,71,37.985880255212365
1,5.455455455,-0.011162808,71,37.985880255212365
1,5.465465465,-0.013011413,71,37.985880255212365
1,5.475475475,-0.031224744,71,37.985880255212365
1,5.485485485,-0.043628633,71,37.985880255212365
1,5.495495495,-0.062026405,71,37.985880255212365
1,5.505505506,-0.074268134,71,37.985880255212365
1,5.515515516,-0.103214012,71,37.985880255212365
1,5.525525526,-0.13791645,71,37.985880255212365
1,5.535535536,-0.176403291,71,37.985880255212365
1,5.545545546,-0.214413312,71,37.985880255212365
1,5.555555556,-0.263629684,71,37.985880255212365
1,5.565565566,-0.304990083,71,37.985880255212365
1,5.575575576,-0.364093232,71,37.985880255212365
1,5.585585586,-0.413666855,71,37.985880255212365
1,5.595595596,-0.453080086,71,37.985880255212365
1,5.605605606,-0.505745182,71,37.985880255212365
1,5.615615616,-0.54956579,71,37.985880255212365
1,5.625625626,-0.604238046,71,37.985880255212365
1,5.635635636,-0.6440376,71,37.985880255212365
1,5.645645646,-0.680030833,71,37.985880255212365
1,5.655655656,-0.718393383,71,37.985880255212365
1,5.665665666,-0.746682802,71,37.985880255212365
1,5.675675676,-0.767902046,71,37.985880255212365
1,5.685685686,-0.785002744,71,37.985880255212365
1,5.695695696,-0.776495115,71,37.985880255212365
1,5.705705706,-0.767873934,71,37.985880255212365
1,5.715715716,-0.755045293,71,37.985880255212365
1,5.725725726,-0.722066358,71,37.985880255212365
1,5.735735736,-0.697723264,71,37.985880255212365
1,5.745745746,-0.658817392,71,37.985880255212365
1,5.755755756,-0.60825258,71,37.985880255212365
1,5.765765766,-0.551943301,71,37.985880255212365
1,5.775775776,-0.47606868,71,37.985880255212365
1,5.785785786,-0.402550151,71,37.985880255212365
1,5.795795796,-0.327894504,71,37.985880255212365
1,5.805805806,-0.246917123,71,37.985880255212365
1,5.815815816,-0.155748384,71,37.985880255212365
1,5.825825826,-0.070023404,71,37.985880255212365
1,5.835835836,0.019769582,71,37.985880255212365
1,5.845845846,0.109432307,71,37.985880255212365
1,5.855855856,0.197819667,71,37.985880255212365
1,5.865865866,0.285908925,71,37.985880255212365
1,5.875875876,0.367635714,71,37.985880255212365
1,5.885885886,0.443465848,71,37.985880255212365
1,5.895895896,0.516222546,71,37.985880255212365
1,5.905905906,0.582382514,71,37.985880255212365
1,5.915915916,0.642230859,71,37.985880255212365
1,5.925925926,0.684347824,71,37.985880255212365
1,5.935935936,0.715791917,71,37.985880255212365
1,5.945945946,0.748524917,71,37.985880255212365
1,5.955955956,0.780024461,71,37.985880255212365
1,5.965965966,0.773778869,71,37.985880255212365
1,5.975975976,0.786183663,71,37.985880255212365
1,5.985985986,0.772655828,71,37.985880255212365
1,5.995995996,0.762990419,71,37.985880255212365
1,6.006006006,0.732831178,71,37.985880255212365
1,6.016016016,0.698529627,71,37.985880255212365
1,6.026026026,0.6669645,71,37.985880255212365
1,6.036036036,0.628338241,71,37.985880255212365
1,6.046046046,0.582887309,71,37.985880255212365
1,6.056056056,0.534299855,71,37.985880255212365
1,6.066066066,0.474960095,71,37.985880255212365
1,6.076076076,0.43426101,71,37.985880255212365
1,6.086086086,0.387415186,71,37.985880255212365
1,6.096096096,0.337695008,71,37.985880255212365
1,6.106106106,0.279738974,71,37.985880255212365
1,6.116116116,0.23622436,71,37.985880255212365
1,6.126126126,0.193731682,71,37.985880255212365
1,6.136136136,0.14961602,71,37.985880255212365
1,6.146146146,0.125928163,71,37.985880255212365
1,6.156156156,0.090902495,71,37.985880255212365
1,6.166166166,0.067254835,71,37.985880255212365
1,6.176176176,0.048043089,71,37.985880255212365
1,6.186186186,0.027693857,71,37.985880255212365
1,6.196196196,0.02787227,71,37.985880255212365
1,6.206206206,0.013161884,71,37.985880255212365
1,6.216216216,0.009205036,71,37.985880255212365
1,6.226226226,-0.003313842,71,37.985880255212365
1,6.236236236,0.003817521,71,37.985880255212365
1,6.246246246,-0.006868697,71,37.985880255212365
1,6.256256256,0.006377514,71,37.985880255212365
1,6.266266266,-0.005088359,71,37.985880255212365
1,6.276276276,-0.011316019,71,37.985880255212365
1,6.286286286,-0.005316407,71,37.985880255212365
1,6.296296296,-0.007267175,71,37.985880255212365
1,6.306306306,-0.021290765,71,37.985880255212365
1,6.316316316,-0.036236797,71,37.985880255212365
1,6.326326326,-0.045513884,71,37.985880255212365
1,6.336336336,-0.0623207,71,37.985880255212365
1,6.346346346,-0.093729155,71,37.985880255212365
1,6.356356356,-0.140815178,71,37.985880255212365
1,6.366366366,-0.166889992,71,37.985880255212365
1,6.376376376,-0.211311254,71,37.985880255212365
1,6.386386386,-0.249693309,71,37.985880255212365
1,6.396396396,-0.293573285,71,37.985880255212365
1,6.406406406,-0.337518785,71,37.985880255212365
1,6.416416416,-0.395960921,71,37.985880255212365
1,6.426426426,-0.440405603,71,37.985880255212365
1,6.436436436,-0.498500062,71,37.985880255212365
1,6.446446446,-0.539663191,71,37.985880255212365
1,6.456456456,-0.58924594,71,37.985880255212365
1,6.466466466,-0.636806032,71,37.985880255212365
1,6.476476476,-0.672758393,71,37.985880255212365
1,6.486486486,-0.708113629,71,37.985880255212365
1,6.496496496,-0.729807745,71,37.985880255212365
1,6.506506507,-0.756809445,71,37.985880255212365
1,6.516516517,-0.779946909,71,37.985880255212365
1,6.526526527,-0.783268343,71,37.985880255212365
1,6.536536537,-0.774901059,71,37.985880255212365
1,6.546546547,-0.762658935,71,37.985880255212365
1,6.556556557,-0.743925193,71,37.985880255212365
1,6.566566567,-0.698063238,71,37.985880255212365
1,6.576576577,-0.674170544,71,37.985880255212365
1,6.586586587,-0.621940269,71,37.985880255212365
1,6.596596597,-0.558744519,71,37.985880255212365
1,6.606606607,-0.501776435,71,37.985880255212365
1,6.616616617,-0.431188579,71,37.985880255212365
1,6.626626627,-0.352603082,71,37.985880255212365
1,6.636636637,-0.260504559,71,37.985880255212365
1,6.646646647,-0.188127102,71,37.985880255212365
1,6.656656657,-0.093310525,71,37.985880255212365
1,6.666666667,0.004394532,71,37.985880255212365
1,6.676676677,0.089486576,71,37.985880255212365
1,6.686686687,0.181492319,71,37.985880255212365
1,6.696696697,0.264477884,71,37.985880255212365
1,6.706706707,0.347491652,71,37.985880255212365
1,6.716716717,0.425043603,71,37.985880255212365
1,6.726726727,0.503823263,71,37.985880255212365
1,6.736736737,0.567933447,71,37.985880255212365
1,6.746746747,0.619502283,71,37.985880255212365
1,6.756756757,0.670615421,71,37.985880255212365
1,6.766766767,0.708813895,71,37.985880255212365
1,6.776776777,0.744560743,71,37.985880255212365
1,6.786786787,0.766867193,71,37.985880255212365
1,6.796796797,0.773269579,71,37.985880255212365
1,6.806806807,0.776618928,71,37.985880255212365
1,6.816816817,0.774061637,71,37.985880255212365
1,6.826826827,0.762632916,71,37.985880255212365
1,6.836836837,0.738975289,71,37.985880255212365
1,6.846846847,0.713689214,71,37.985880255212365
1,6.856856857,0.664517246,71,37.985880255212365
1,6.866866867,0.636868105,71,37.985880255212365
1,6.876876877,0.585105928,71,37.985880255212365
1,6.886886887,0.542190893,71,37.985880255212365
1,6.896896897,0.497170571,71,37.985880255212365
1,6.906906907,0.450579662,71,37.985880255212365
1,6.916916917,0.404415017,71,37.985880255212365
1,6.926926927,0.339206501,71,37.985880255212365
1,6.936936937,0.292638885,71,37.985880255212365
1,6.946946947,0.243948679,71,37.985880255212365
1,6.956956957,0.209434315,71,37.985880255212365
1,6.966966967,0.176450711,71,37.985880255212365
1,6.976976977,0.140959009,71,37.985880255212365
1,6.986986987,0.097200202,71,37.985880255212365
1,6.996996997,0.066312051,71,37.985880255212365
1,7.007007007,0.052019659,71,37.985880255212365
1,7.017017017,0.025697288,71,37.985880255212365
1,7.027027027,0.027761364,71,37.985880255212365
1,7.037037037,0.008119271,71,37.985880255212365
1,7.047047047,0.015197704,71,37.985880255212365
1,7.057057057,0.003344471,71,37.985880255212365
1,7.067067067,0.000217029,71,37.985880255212365
1,7.077077077,-0.001241947,71,37.985880255212365
1,7.087087087,-0.007730258,71,37.985880255212365
1,7.097097097,-0.000571625,71,37.985880255212365
1,7.107107107,0.006751655,71,37.985880255212365
1,7.117117117,-0.009378135,71,37.985880255212365
1,7.127127127,-0.01110892,71,37.985880255212365
1,7.137137137,-0.014043138,71,37.985880255212365
1,7.147147147,-0.026374895,71,37.985880255212365
1,7.157157157,-0.051768939,71,37.985880255212365
1,7.167167167,-0.071691308,71,37.985880255212365
1,7.177177177,-0.087904801,71,37.985880255212365
1,7.187187187,-0.124670909,71,37.985880255212365
1,7.197197197,-0.165340498,71,37.985880255212365
1,7.207207207,-0.187862739,71,37.985880255212365
1,7.217217217,-0.233675391,71,37.985880255212365
1,7.227227227,-0.276009478,71,37.985880255212365
1,7.237237237,-0.335002682,71,37.985880255212365
1,7.247247247,-0.371126596,71,37.985880255212365
1,7.257257257,-0.433875795,71,37.985880255212365
1,7.267267267,-0.485372804,71,37.985880255212365
1,7.277277277,-0.527660446,71,37.985880255212365
1,7.287287287,-0.579962769,71,37.985880255212365
1,7.297297297,-0.631144703,71,37.985880255212365
1,7.307307307,-0.663873582,71,37.985880255212365
1,7.317317317,-0.698677355,71,37.985880255212365
1,7.327327327,-0.73531829,71,37.985880255212365
1,7.337337337,-0.755805668,71,37.985880255212365
1,7.347347347,-0.767653519,71,37.985880255212365
1,7.357357357,-0.777160924,71,37.985880255212365
1,7.367367367,-0.782103201,71,37.985880255212365
1,7.377377377,-0.77169759,71,37.985880255212365
1,7.387387387,-0.742951138,71,37.985880255212365
1,7.397397397,-0.71090495,71,37.985880255212365
1,7.407407407,-0.681920976,71,37.985880255212365
1,7.417417417,-0.638844391,71,37.985880255212365
1,7.427427427,-0.574104247,71,37.985880255212365
1,7.437437437,-0.518866778,71,37.985880255212365
1,7.447447447,-0.437926618,71,37.985880255212365
1,7.457457457,-0.36652887,71,37.985880255212365
1,7.467467467,-0.298092609,71,37.985880255212365
1,7.477477477,-0.201353925,71,37.985880255212365
1,7.487487487,-0.114258553,71,37.985880255212365
1,7.497497497,-0.021449816,71,37.985880255212365
1,7.507507508,0.063154017,71,37.985880255212365
1,7.517517518,0.164729867,71,37.985880255212365
1,7.527527528,0.248398878,71,37.985880255212365
1,7.537537538,0.333402977,71,37.985880255212365
1,7.547547548,0.404817776,71,37.985880255212365
1,7.557557558,0.498256185,71,37.985880255212365
1,7.567567568,0.548575422,71,37.985880255212365
1,7.577577578,0.609903814,71,37.985880255212365
1,7.587587588,0.662472048,71,37.985880255212365
1,7.597597598,0.695695153,71,37.985880255212365
1,7.607607608,0.733301472,71,37.985880255212365
1,7.617617618,0.759779087,71,37.985880255212365
1,7.627627628,0.77512969,71,37.985880255212365
1,7.637637638,0.779407543,71,37.985880255212365
1,7.647647648,0.764085886,71,37.985880255212365
1,7.657657658,0.765495075,71,37.985880255212365
1,7.667667668,0.745459788,71,37.985880255212365
1,7.677677678,0.713643357,71,37.985880255212365
1,7.687687688,0.678659038,71,37.985880255212365
1,7.697697698,0.649516357,71,37.985880255212365
1,7.707707708,0.589175839,71,37.985880255212365
1,7.717717718,0.553670919,71,37.985880255212365
1,7.727727728,0.511812279,71,37.985880255212365
1,7.737737738,0.454313052,71,37.985880255212365
1,7.747747748,0.398349463,71,37.985880255212365
1,7.757757758,0.35534235,71,37.985880255212365
1,7.767767768,0.301315672,71,37.985880255212365
1,7.777777778,0.270077436,71,37.985880255212365
1,7.787787788,0.217297307,71,37.985880255212365
1,7.797797798,0.173089862,71,37.985880255212365
1,7.807807808,0.146215504,71,37.985880255212365
1,7.817817818,0.101415193,71,37.985880255212365
1,7.827827828,0.087613374,71,37.985880255212365
1,7.837837838,0.056086681,71,37.985880255212365
1,7.847847848,0.045794548,71,37.985880255212365
1,7.857857858,0.024993863,71,37.985880255212365
1,7.867867868,0.010497624,71,37.985880255212365
1,7.877877878,0.005003778,71,37.985880255212365
1,7.887887888,0.007459189,71,37.985880255212365
1,7.897897898,-0.007053174,71,37.985880255212365
1,7.907907908,-0.001159455,71,37.985880255212365
1,7.917917918,-0.002444032,71,37.985880255212365
1,7.927927928,-0.001721886,71,37.985880255212365
1,7.937937938,-0.007059534,71,37.985880255212365
1,7.947947948,-0.000107222,71,37.985880255212365
1,7.957957958,-0.009485846,71,37.985880255212365
1,7.967967968,-0.015223467,71,37.985880255212365
1,7.977977978,-0.027866717,71,37.985880255212365
1,7.987987988,-0.044315906,71,37.985880255212365
1,7.997997998,-0.06143883,71,37.985880255212365
1,8.008008008,-0.088900293,71,37.985880255212365
1,8.018018018,-0.119898968,71,37.985880255212365
1,8.028028028,-0.150596743,71,37.985880255212365
1,8.038038038,-0.182605817,71,37.985880255212365
1,8.048048048,-0.228881626,71,37.985880255212365
1,8.058058058,-0.270686448,71,37.985880255212365
1,8.068068068,-0.32291575,71,37.985880255212365
1,8.078078078,-0.367240342,71,37.985880255212365
1,8.088088088,-0.420113461,71,37.985880255212365
1,8.098098098,-0.468786243,71,37.985880255212365
1,8.108108108,-0.50775488,71,37.985880255212365
1,8.118118118,-0.567385886,71,37.985880255212365
1,8.128128128,-0.609135336,71,37.985880255212365
1,8.138138138,-0.664594125,71,37.985880255212365
1,8.148148148,-0.689205477,71,37.985880255212365
1,8.158158158,-0.727160786,71,37.985880255212365
1,8.168168168,-0.750319904,71,37.985880255212365
1,8.178178178,-0.775494836,71,37.985880255212365
1,8.188188188,-0.780801634,71,37.985880255212365
1,8.198198198,-0.781269688,71,37.985880255212365
1,8.208208208,-0.76899127,71,37.985880255212365
1,8.218218218,-0.75773292,71,37.985880255212365
1,8.228228228,-0.722582713,71,37.985880255212365
1,8.238238238,-0.693243047,71,37.985880255212365
1,8.248248248,-0.640981656,71,37.985880255212365
1,8.258258258,-0.593437964,71,37.985880255212365
1,8.268268268,-0.527068547,71,37.985880255212365
1,8.278278278,-0.465488777,71,37.985880255212365
1,8.288288288,-0.389952786,71,37.985880255212365
1,8.298298298,-0.303097035,71,37.985880255212365
1,8.308308308,-0.221591991,71,37.985880255212365
1,8.318318318,-0.138218653,71,37.985880255212365
1,8.328328328,-0.045365846,71,37.985880255212365
1,8.338338338,0.050295962,71,37.985880255212365
1,8.348348348,0.136532087,71,37.985880255212365
1,8.358358358,0.213926501,71,37.985880255212365
1,8.368368368,0.305100526,71,37.985880255212365
1,8.378378378,0.377992804,71,37.985880255212365
1,8.388388388,0.46683451,71,37.985880255212365
1,8.398398398,0.526767592,71,37.985880255212365
1,8.408408408,0.592359697,71,37.985880255212365
1,8.418418418,0.641122097,71,37.985880255212365
1,8.428428428,0.68108035,71,37.985880255212365
1,8.438438438,0.724773154,71,37.985880255212365
1,8.448448448,0.755129476,71,37.985880255212365
1,8.458458458,0.77158888,71,37.985880255212365
1,8.468468468,0.770929534,71,37.985880255212365
1,8.478478478,0.780342406,71,37.985880255212365
1,8.488488488,0.770456153,71,37.985880255212365
1,8.498498498,0.748106652,71,37.985880255212365
1,8.508508509,0.717153453,71,37.985880255212365
1,8.518518519,0.699038845,71,37.985880255212365
1,8.528528529,0.656949359,71,37.985880255212365
1,8.538538539,0.606729834,71,37.985880255212365
1,8.548548549,0.563725838,71,37.985880255212365
1,8.558558559,0.528454549,71,37.985880255212365
1,8.568568569,0.469871114,71,37.985880255212365
1,8.578578579,0.420693387,71,37.985880255212365
1,8.588588589,0.366522775,71,37.985880255212365
1,8.598598599,0.327672285,71,37.985880255212365
1,8.608608609,0.275377937,71,37.985880255212365
1,8.618618619,0.229671363,71,37.985880255212365
1,8.628628629,0.187280844,71,37.985880255212365
1,8.638638639,0.15395188,71,37.985880255212365
1,8.648648649,0.104887381,71,37.985880255212365
1,8.658658659,0.089643622,71,37.985880255212365
1,8.668668669,0.057765398,71,37.985880255212365
1,8.678678679,0.04328045,71,37.985880255212365
1,8.688688689,0.022159773,71,37.985880255212365
1,8.698698699,0.025857532,71,37.985880255212365
1,8.708708709,0.006639494,71,37.985880255212365
1,8.718718719,0.009982409,71,37.985880255212365
1,8.728728729,-0.005152409,71,37.985880255212365
1,8.738738739,0.007906065,71,37.985880255212365
1,8.748748749,0.000589729,71,37.985880255212365
1,8.758758759,0.00484038,71,37.985880255212365
1,8.768768769,0.004807967,71,37.985880255212365
1,8.778778779,-0.006036583,71,37.985880255212365
1,8.788788789,-0.006196963,71,37.985880255212365
1,8.798798799,-0.011587749,71,37.985880255212365
1,8.808808809,-0.026164857,71,37.985880255212365
1,8.818818819,-0.031476012,71,37.985880255212365
1,8.828828829,-0.050186761,71,37.985880255212365
1,8.838838839,-0.079671431,71,37.985880255212365
1,8.848848849,-0.105832646,71,37.985880255212365
1,8.858858859,-0.137636279,71,37.985880255212365
1,8.868868869,-0.176424801,71,37.985880255212365
1,8.878878879,-0.220189675,71,37.985880255212365
1,8.888888889,-0.254283629,71,37.985880255212365
1,8.898898899,-0.304791979,71,37.985880255212365
1,8.908908909,-0.348173239,71,37.985880255212365
1,8.918918919,-0.41574118,71,37.985880255212365
1,8.928928929,-0.453121562,71,37.985880255212365
1,8.938938939,-0.505848645,71,37.985880255212365
1,8.948948949,-0.55808175,71,37.985880255212365
1,8.958958959,-0.601712202,71,37.985880255212365
1,8.968968969,-0.64558032,71,37.985880255212365
1,8.978978979,-0.689737398,71,37.985880255212365
1,8.988988989,-0.725376776,71,37.985880255212365
1,8.998998999,-0.744710609,71,37.985880255212365
1,9.009009009,-0.76353566,71,37.985880255212365
1,9.019019019,-0.77531733,71,37.985880255212365
1,9.029029029,-0.778593215,71,37.985880255212365
1,9.039039039,-0.766213335,71,37.985880255212365
1,9.049049049,-0.756222644,71,37.985880255212365
1,9.059059059,-0.729417985,71,37.985880255212365
1,9.069069069,-0.704759705,71,37.985880255212365
1,9.079079079,-0.658701283,71,37.985880255212365
1,9.089089089,-0.606236849,71,37.985880255212365
1,9.099099099,-0.549892421,71,37.985880255212365
1,9.109109109,-0.482765326,71,37.985880255212365
1,9.119119119,-0.402935139,71,37.985880255212365
1,9.129129129,-0.327519608,71,37.985880255212365
1,9.139139139,-0.249919409,71,37.985880255212365
1,9.149149149,-0.170580634,71,37.985880255212365
1,9.159159159,-0.07944983,71,37.985880255212365
1,9.169169169,0.019336158,71,37.985880255212365
1,9.179179179,0.112010998,71,37.985880255212365
1,9.189189189,0.210628315,71,37.985880255212365
1,9.199199199,0.288060085,71,37.985880255212365
1,9.209209209,0.365760488,71,37.985880255212365
1,9.219219219,0.444215409,71,37.985880255212365
1,9.229229229,0.521018215,71,37.985880255212365
1,9.239239239,0.573151029,71,37.985880255212365
1,9.249249249,0.623716373,71,37.985880255212365
1,9.259259259,0.677818069,71,37.985880255212365
1,9.269269269,0.71984898,71,37.985880255212365
1,9.279279279,0.752656344,71,37.985880255212365
1,9.289289289,0.764114151,71,37.985880255212365
1,9.299299299,0.775354288,71,37.985880255212365
1,9.309309309,0.780721818,71,37.985880255212365
1,9.319319319,0.776577873,71,37.985880255212365
1,9.329329329,0.750510181,71,37.985880255212365
1,9.339339339,0.727304284,71,37.985880255212365
1,9.349349349,0.695709827,71,37.985880255212365
1,9.359359359,0.661537772,71,37.985880255212365
1,9.369369369,0.622461375,71,37.985880255212365
1,9.379379379,0.585385062,71,37.985880255212365
1,9.389389389,0.529972237,71,37.985880255212365
1,9.399399399,0.490578474,71,37.985880255212365
1,9.409409409,0.429702704,71,37.985880255212365
1,9.419419419,0.380202094,71,37.985880255212365
1,9.429429429,0.333340873,71,37.985880255212365
1,9.439439439,0.280974238,71,37.985880255212365
1,9.449449449,0.231368179,71,37.985880255212365
1,9.459459459,0.187302445,71,37.985880255212365
1,9.469469469,0.149073636,71,37.985880255212365
1,9.479479479,0.116145108,71,37.985880255212365
1,9.489489489,0.080168836,71,37.985880255212365
1,9.499499499,0.068685671,71,37.985880255212365
1,9.50950951,0.046916832,71,37.985880255212365
1,9.51951952,0.037659992,71,37.985880255212365
1,9.52952953,0.015537047,71,37.985880255212365
1,9.53953954,0.006471486,71,37.985880255212365
1,9.54954955,-0.002775627,71,37.985880255212365
1,9.55955956,0.000793381,71,37.985880255212365
1,9.56956957,0.002193605,71,37.985880255212365
1,9.57957958,0.000676249,71,37.985880255212365
1,9.58958959,-0.003109114,71,37.985880255212365
1,9.5995996,1.06e-05,71,37.985880255212365
1,9.60960961,-0.004405265,71,37.985880255212365
1,9.61961962,0.002414898,71,37.985880255212365
1,9.62962963,-0.010526228,71,37.985880255212365
1,9.63963964,-0.020754456,71,37.985880255212365
1,9.64964965,-0.041831343,71,37.985880255212365
1,9.65965966,-0.055659277,71,37.985880255212365
1,9.66966967,-0.079908661,71,37.985880255212365
1,9.67967968,-0.104513393,71,37.985880255212365
1,9.68968969,-0.136562996,71,37.985880255212365
1,9.6996997,-0.165973459,71,37.985880255212365
1,9.70970971,-0.201105886,71,37.985880255212365
1,9.71971972,-0.253373328,71,37.985880255212365
1,9.72972973,-0.301139573,71,37.985880255212365
1,9.73973974,-0.348889398,71,37.985880255212365
1,9.74974975,-0.389886208,71,37.985880255212365
1,9.75975976,-0.44094984,71,37.985880255212365
1,9.76976977,-0.497418431,71,37.985880255212365
1,9.77977978,-0.545137693,71,37.985880255212365
1,9.78978979,-0.59114919,71,37.985880255212365
1,9.7997998,-0.635097974,71,37.985880255212365
1,9.80980981,-0.677021154,71,37.985880255212365
1,9.81981982,-0.709672506,71,37.985880255212365
1,9.82982983,-0.737083418,71,37.985880255212365
1,9.83983984,-0.765841885,71,37.985880255212365
1,9.84984985,-0.777039354,71,37.985880255212365
1,9.85985986,-0.785891808,71,37.985880255212365
1,9.86986987,-0.772407746,71,37.985880255212365
1,9.87987988,-0.765493732,71,37.985880255212365
1,9.88988989,-0.740572403,71,37.985880255212365
1,9.8998999,-0.718206276,71,37.985880255212365
1,9.90990991,-0.68347081,71,37.985880255212365
1,9.91991992,-0.619655363,71,37.985880255212365
1,9.92992993,-0.56199778,71,37.985880255212365
1,9.93993994,-0.495570164,71,37.985880255212365
1,9.94994995,-0.420717099,71,37.985880255212365
1,9.95995996,-0.350771344,71,37.985880255212365
1,9.96996997,-0.270657525,71,37.985880255212365
1,9.97997998,-0.177101728,71,37.985880255212365
1,9.98998999,-0.09205362,71,37.985880255212365
1,10.0,0.010782548,71,37.985880255212365
