Subject_ID,Time,PPG,HR,HRV
4,0.0,0.0005859808002,76,59.90844847311863
4,0.01001001001001,0.0932345884921807,76,59.90844847311863
4,0.02002002002002,0.173425890709958,76,59.90844847311863
4,0.03003003003003,0.2666822298830146,76,59.90844847311863
4,0.04004004004004,0.344175002408146,76,59.90844847311863
4,0.05005005005005,0.4184965393564221,76,59.90844847311863
4,0.06006006006006,0.4943756294428813,76,59.90844847311863
4,0.07007007007007,0.5696704946952941,76,59.90844847311863
4,0.08008008008008,0.6187368438914249,76,59.90844847311863
4,0.09009009009009,0.6701966219811726,76,59.90844847311863
4,0.1001001001001,0.7011513891596219,76,59.90844847311863
4,0.1101101101101101,0.7450238738571603,76,59.90844847311863
4,0.1201201201201201,0.7678716730416011,76,59.90844847311863
4,0.1301301301301301,0.7715900591387957,76,59.90844847311863
4,0.1401401401401401,0.7794132137856615,76,59.90844847311863
4,0.1501501501501501,0.7754580143830052,76,59.90844847311863
4,0.1601601601601601,0.7620125648591488,76,59.90844847311863
4,0.1701701701701701,0.7419901625741175,76,59.90844847311863
4,0.1801801801801801,0.7106146163616843,76,59.90844847311863
4,0.1901901901901901,0.6783433296889575,76,59.90844847311863
4,0.2002002002002001,0.643136028196975,76,59.90844847311863
4,0.2102102102102102,0.5990611859669431,76,59.90844847311863
4,0.2202202202202202,0.544490788487889,76,59.90844847311863
4,0.2302302302302302,0.4915602418930075,76,59.90844847311863
4,0.2402402402402402,0.440710625714913,76,59.90844847311863
4,0.2502502502502503,0.383860084776356,76,59.90844847311863
4,0.2602602602602603,0.3416864939217718,76,59.90844847311863
4,0.2702702702702703,0.297543385858644,76,59.90844847311863
4,0.2802802802802803,0.2452919642944424,76,59.90844847311863
4,0.2902902902902903,0.2052295767918591,76,59.90844847311863
4,0.3003003003003003,0.1597644809074414,76,59.90844847311863
4,0.3103103103103103,0.1298810156216089,76,59.90844847311863
4,0.3203203203203203,0.0898440746838168,76,59.90844847311863
4,0.3303303303303303,0.0805329316323681,76,59.90844847311863
4,0.3403403403403403,0.059703059075217,76,59.90844847311863
4,0.3503503503503503,0.0397199086933811,76,59.90844847311863
4,0.3603603603603603,0.0268479367227685,76,59.90844847311863
4,0.3703703703703703,0.0127095257478407,76,59.90844847311863
4,0.3803803803803803,0.0081848228707542,76,59.90844847311863
4,0.3903903903903903,-0.0028294400706102,76,59.90844847311863
4,0.4004004004004003,-0.0033033071556073,76,59.90844847311863
4,0.4104104104104104,0.0025196773858288,76,59.90844847311863
4,0.4204204204204204,0.0006291045589363,76,59.90844847311863
4,0.4304304304304304,-1.2003629775401872e-05,76,59.90844847311863
4,0.4404404404404404,-0.0067309576930311,76,59.90844847311863
4,0.4504504504504504,-0.0072858592236824,76,59.90844847311863
4,0.4604604604604604,-0.0186890184237321,76,59.90844847311863
4,0.4704704704704704,-0.0175391233633436,76,59.90844847311863
4,0.4804804804804805,-0.0317025325229015,76,59.90844847311863
4,0.4904904904904905,-0.0496022219909158,76,59.90844847311863
4,0.5005005005005005,-0.062266320120172,76,59.90844847311863
4,0.5105105105105106,-0.0947991363649872,76,59.90844847311863
4,0.5205205205205206,-0.1242556758750412,76,59.90844847311863
4,0.5305305305305306,-0.1592139251664174,76,59.90844847311863
4,0.5405405405405406,-0.1997758248484056,76,59.90844847311863
4,0.5505505505505506,-0.2496382059436895,76,59.90844847311863
4,0.5605605605605606,-0.2764104347898612,76,59.90844847311863
4,0.5705705705705706,-0.3333944176790921,76,59.90844847311863
4,0.5805805805805806,-0.387317850831217,76,59.90844847311863
4,0.5905905905905906,-0.4310103479489534,76,59.90844847311863
4,0.6006006006006006,-0.478005562856709,76,59.90844847311863
4,0.6106106106106106,-0.5342886060356249,76,59.90844847311863
4,0.6206206206206206,-0.5747116619886967,76,59.90844847311863
4,0.6306306306306306,-0.6292403235857095,76,59.90844847311863
4,0.6406406406406406,-0.6719772509436428,76,59.90844847311863
4,0.6506506506506506,-0.6957177099145762,76,59.90844847311863
4,0.6606606606606606,-0.73865476579843,76,59.90844847311863
4,0.6706706706706707,-0.7488254735404318,76,59.90844847311863
4,0.6806806806806807,-0.7739859759671549,76,59.90844847311863
4,0.6906906906906907,-0.7818711852714028,76,59.90844847311863
4,0.7007007007007007,-0.7744637791112257,76,59.90844847311863
4,0.7107107107107107,-0.769271354256561,76,59.90844847311863
4,0.7207207207207207,-0.7576217666567276,76,59.90844847311863
4,0.7307307307307307,-0.7082095446216168,76,59.90844847311863
4,0.7407407407407407,-0.6774982671192024,76,59.90844847311863
4,0.7507507507507507,-0.6283381972985247,76,59.90844847311863
4,0.7607607607607607,-0.5835838477933886,76,59.90844847311863
4,0.7707707707707707,-0.5183220306049672,76,59.90844847311863
4,0.7807807807807807,-0.4449349859577313,76,59.90844847311863
4,0.7907907907907907,-0.3591127474823205,76,59.90844847311863
4,0.8008008008008007,-0.2840666823041784,76,59.90844847311863
4,0.8108108108108109,-0.194821794650112,76,59.90844847311863
4,0.8208208208208209,-0.1102371951780237,76,59.90844847311863
4,0.8308308308308309,-0.0266875351193772,76,59.90844847311863
4,0.8408408408408409,0.066056984954973,76,59.90844847311863
4,0.8508508508508509,0.1551717970706028,76,59.90844847311863
4,0.8608608608608609,0.2523428020641228,76,59.90844847311863
4,0.8708708708708709,0.3263239991408685,76,59.90844847311863
4,0.8808808808808809,0.4114364861750585,76,59.90844847311863
4,0.8908908908908909,0.4914673578786419,76,59.90844847311863
4,0.9009009009009008,0.5487108329634198,76,59.90844847311863
4,0.9109109109109108,0.5961006710879869,76,59.90844847311863
4,0.9209209209209208,0.6599187399391978,76,59.90844847311863
4,0.9309309309309308,0.6937769269027665,76,59.90844847311863
4,0.9409409409409408,0.738038996455642,76,59.90844847311863
4,0.950950950950951,0.7652574480660832,76,59.90844847311863
4,0.960960960960961,0.7716566196930515,76,59.90844847311863
4,0.970970970970971,0.7813416675420449,76,59.90844847311863
4,0.980980980980981,0.7773785453699541,76,59.90844847311863
4,0.990990990990991,0.7645924677994691,76,59.90844847311863
4,1.001001001001001,0.7414045425687749,76,59.90844847311863
4,1.011011011011011,0.7244564587250499,76,59.90844847311863
4,1.021021021021021,0.6901436185964069,76,59.90844847311863
4,1.031031031031031,0.6520556190331894,76,59.90844847311863
4,1.0410410410410411,0.5917656381080085,76,59.90844847311863
4,1.0510510510510511,0.5537149630863696,76,59.90844847311863
4,1.0610610610610611,0.5040488129699721,76,59.90844847311863
4,1.0710710710710711,0.4456653051188395,76,59.90844847311863
4,1.0810810810810811,0.4099546724348555,76,59.90844847311863
4,1.0910910910910911,0.353231190734049,76,59.90844847311863
4,1.1011011011011012,0.3045983943011172,76,59.90844847311863
4,1.1111111111111112,0.2555695551355154,76,59.90844847311863
4,1.1211211211211212,0.2181216930000055,76,59.90844847311863
4,1.1311311311311312,0.1713367046020804,76,59.90844847311863
4,1.1411411411411412,0.1346767869870401,76,59.90844847311863
4,1.1511511511511512,0.1008051873536629,76,59.90844847311863
4,1.1611611611611612,0.0840587663391903,76,59.90844847311863
4,1.1711711711711712,0.0576407410296223,76,59.90844847311863
4,1.1811811811811812,0.0376661456541329,76,59.90844847311863
4,1.1911911911911912,0.0235203649458317,76,59.90844847311863
4,1.2012012012012012,0.0155008678171754,76,59.90844847311863
4,1.2112112112112112,0.005002824151065,76,59.90844847311863
4,1.2212212212212212,0.0002959677281053,76,59.90844847311863
4,1.2312312312312312,-0.0084111259307092,76,59.90844847311863
4,1.2412412412412412,-0.0002566046003595,76,59.90844847311863
4,1.2512512512512513,0.000552191338742,76,59.90844847311863
4,1.2612612612612613,0.0001532885202861,76,59.90844847311863
4,1.2712712712712713,0.0101436506451079,76,59.90844847311863
4,1.2812812812812813,-0.0045204448354136,76,59.90844847311863
4,1.2912912912912913,-0.0099140525551181,76,59.90844847311863
4,1.3013013013013013,-0.0222082281639721,76,59.90844847311863
4,1.3113113113113113,-0.0264391607592942,76,59.90844847311863
4,1.3213213213213213,-0.0584184880145193,76,59.90844847311863
4,1.3313313313313313,-0.0650844404412716,76,59.90844847311863
4,1.3413413413413413,-0.0831108616765421,76,59.90844847311863
4,1.351351351351351,-0.1082542458373915,76,59.90844847311863
4,1.361361361361361,-0.1456564742853733,76,59.90844847311863
4,1.371371371371371,-0.1872519010018377,76,59.90844847311863
4,1.3813813813813811,-0.2286494464480799,76,59.90844847311863
4,1.3913913913913911,-0.2714272845638735,76,59.90844847311863
4,1.4014014014014011,-0.3261859341175682,76,59.90844847311863
4,1.4114114114114114,-0.3716685790148193,76,59.90844847311863
4,1.4214214214214214,-0.415808625267465,76,59.90844847311863
4,1.4314314314314314,-0.4673390635868903,76,59.90844847311863
4,1.4414414414414414,-0.5181907000564538,76,59.90844847311863
4,1.4514514514514514,-0.5665147498935544,76,59.90844847311863
4,1.4614614614614614,-0.6249527592585289,76,59.90844847311863
4,1.4714714714714714,-0.6604225866635807,76,59.90844847311863
4,1.4814814814814814,-0.689999461083272,76,59.90844847311863
4,1.4914914914914914,-0.7267366073011171,76,59.90844847311863
4,1.5015015015015014,-0.7494449071942748,76,59.90844847311863
4,1.5115115115115114,-0.7674074583326782,76,59.90844847311863
4,1.5215215215215214,-0.7892209963148809,76,59.90844847311863
4,1.5315315315315314,-0.7780381469617321,76,59.90844847311863
4,1.5415415415415414,-0.7640139910907101,76,59.90844847311863
4,1.5515515515515514,-0.7601157146514685,76,59.90844847311863
4,1.5615615615615617,-0.7275595471055867,76,59.90844847311863
4,1.5715715715715717,-0.6952499236180064,76,59.90844847311863
4,1.5815815815815817,-0.648580858287721,76,59.90844847311863
4,1.5915915915915917,-0.5872538553893962,76,59.90844847311863
4,1.6016016016016017,-0.5391363784304009,76,59.90844847311863
4,1.6116116116116117,-0.4581507414236648,76,59.90844847311863
4,1.6216216216216215,-0.3939940772282529,76,59.90844847311863
4,1.6316316316316315,-0.3111105533174125,76,59.90844847311863
4,1.6416416416416415,-0.2242530205397173,76,59.90844847311863
4,1.6516516516516515,-0.1278640779133507,76,59.90844847311863
4,1.6616616616616615,-0.0432369130013511,76,59.90844847311863
4,1.6716716716716715,0.0458763850526565,76,59.90844847311863
4,1.6816816816816818,0.1379548172732257,76,59.90844847311863
4,1.6916916916916918,0.2218126008207216,76,59.90844847311863
4,1.7017017017017018,0.3028884439664138,76,59.90844847311863
4,1.7117117117117118,0.3945503900131208,76,59.90844847311863
4,1.7217217217217218,0.4580400641287266,76,59.90844847311863
4,1.7317317317317318,0.5229282405619744,76,59.90844847311863
4,1.7417417417417418,0.5839597181544677,76,59.90844847311863
4,1.7517517517517518,0.6485415711265029,76,59.90844847311863
4,1.7617617617617618,0.6930991077322121,76,59.90844847311863
4,1.7717717717717718,0.7232684610057849,76,59.90844847311863
4,1.7817817817817818,0.7514751400814293,76,59.90844847311863
4,1.7917917917917918,0.7697047826836063,76,59.90844847311863
4,1.8018018018018016,0.7693926990322463,76,59.90844847311863
4,1.811811811811812,0.7758507605921915,76,59.90844847311863
4,1.8218218218218216,0.7612043536315923,76,59.90844847311863
4,1.831831831831832,0.7481380919191639,76,59.90844847311863
4,1.8418418418418416,0.7298120523028516,76,59.90844847311863
4,1.851851851851852,0.6976433942009534,76,59.90844847311863
4,1.8618618618618616,0.6525488166798615,76,59.90844847311863
4,1.871871871871872,0.6152464976897565,76,59.90844847311863
4,1.8818818818818817,0.5741750087575962,76,59.90844847311863
4,1.891891891891892,0.5195788915433525,76,59.90844847311863
4,1.901901901901902,0.4754512551044662,76,59.90844847311863
4,1.911911911911912,0.4237150671126259,76,59.90844847311863
4,1.921921921921922,0.3662774093188406,76,59.90844847311863
4,1.931931931931932,0.3067049834569733,76,59.90844847311863
4,1.941941941941942,0.2762587226609164,76,59.90844847311863
4,1.951951951951952,0.2166739697831944,76,59.90844847311863
4,1.961961961961962,0.1833493724353156,76,59.90844847311863
4,1.971971971971972,0.1463964293112086,76,59.90844847311863
4,1.981981981981982,0.1197905018801948,76,59.90844847311863
4,1.991991991991992,0.082273392240792,76,59.90844847311863
4,2.002002002002002,0.0633741511808822,76,59.90844847311863
4,2.012012012012012,0.0445992882508651,76,59.90844847311863
4,2.022022022022022,0.0305318636566373,76,59.90844847311863
4,2.032032032032032,0.0298635836578813,76,59.90844847311863
4,2.042042042042042,0.00788247564729,76,59.90844847311863
4,2.052052052052052,0.0071862322186125,76,59.90844847311863
4,2.062062062062062,-0.0039127965750854,76,59.90844847311863
4,2.072072072072072,0.0060263828852341,76,59.90844847311863
4,2.0820820820820822,-0.0050447814863656,76,59.90844847311863
4,2.092092092092092,0.0128342354971482,76,59.90844847311863
4,2.1021021021021022,0.0069565230768704,76,59.90844847311863
4,2.112112112112112,-0.0073464168064945,76,59.90844847311863
4,2.1221221221221223,-0.0089873161082437,76,59.90844847311863
4,2.1321321321321323,-0.0162759673995614,76,59.90844847311863
4,2.1421421421421423,-0.0187170980912995,76,59.90844847311863
4,2.1521521521521523,-0.0276460839934222,76,59.90844847311863
4,2.1621621621621623,-0.0561736938461679,76,59.90844847311863
4,2.1721721721721723,-0.0754818079090811,76,59.90844847311863
4,2.1821821821821823,-0.1070192471910188,76,59.90844847311863
4,2.1921921921921923,-0.1345147706755041,76,59.90844847311863
4,2.2022022022022023,-0.1743201412607236,76,59.90844847311863
4,2.2122122122122123,-0.2222815641859035,76,59.90844847311863
4,2.2222222222222223,-0.2559848107922241,76,59.90844847311863
4,2.2322322322322323,-0.2993599333961723,76,59.90844847311863
4,2.2422422422422423,-0.3494254266005109,76,59.90844847311863
4,2.2522522522522523,-0.4036615326411075,76,59.90844847311863
4,2.2622622622622623,-0.4501843414388385,76,59.90844847311863
4,2.2722722722722724,-0.5025038313057991,76,59.90844847311863
4,2.2822822822822824,-0.5519328008228735,76,59.90844847311863
4,2.2922922922922924,-0.5984474758355433,76,59.90844847311863
4,2.3023023023023024,-0.6523516448027221,76,59.90844847311863
4,2.3123123123123124,-0.6870570643750511,76,59.90844847311863
4,2.3223223223223224,-0.7173935274751969,76,59.90844847311863
4,2.3323323323323324,-0.7264105400182751,76,59.90844847311863
4,2.3423423423423424,-0.766590174817892,76,59.90844847311863
4,2.3523523523523524,-0.7702262567472596,76,59.90844847311863
4,2.3623623623623624,-0.780942572021802,76,59.90844847311863
4,2.3723723723723724,-0.7686910021241563,76,59.90844847311863
4,2.3823823823823824,-0.7738631910887093,76,59.90844847311863
4,2.3923923923923924,-0.7291815935442091,76,59.90844847311863
4,2.4024024024024024,-0.7020672907581139,76,59.90844847311863
4,2.4124124124124124,-0.6584579107482633,76,59.90844847311863
4,2.4224224224224224,-0.6068434110734845,76,59.90844847311863
4,2.4324324324324325,-0.5391673155644441,76,59.90844847311863
4,2.4424424424424425,-0.4857396776063254,76,59.90844847311863
4,2.4524524524524525,-0.4064007136568946,76,59.90844847311863
4,2.4624624624624625,-0.3345384265948029,76,59.90844847311863
4,2.4724724724724725,-0.2481346150266309,76,59.90844847311863
4,2.4824824824824825,-0.1513042928893371,76,59.90844847311863
4,2.4924924924924925,-0.0671879672384305,76,59.90844847311863
4,2.5025025025025025,0.030239315942393,76,59.90844847311863
4,2.5125125125125125,0.1059867474590104,76,59.90844847311863
4,2.5225225225225225,0.1945729378857153,76,59.90844847311863
4,2.5325325325325325,0.2886538472858437,76,59.90844847311863
4,2.5425425425425425,0.3688325348168766,76,59.90844847311863
4,2.5525525525525525,0.4522392984548684,76,59.90844847311863
4,2.5625625625625625,0.5102674093585033,76,59.90844847311863
4,2.5725725725725725,0.5841769941880475,76,59.90844847311863
4,2.5825825825825826,0.6374992204931323,76,59.90844847311863
4,2.592592592592593,0.6803223062303566,76,59.90844847311863
4,2.6026026026026026,0.726933218920529,76,59.90844847311863
4,2.612612612612613,0.7467538874143478,76,59.90844847311863
4,2.6226226226226226,0.7689575159155787,76,59.90844847311863
4,2.6326326326326326,0.7782652769945034,76,59.90844847311863
4,2.6426426426426426,0.7841070196240365,76,59.90844847311863
4,2.6526526526526526,0.7678394605284641,76,59.90844847311863
4,2.6626626626626626,0.7545204353181608,76,59.90844847311863
4,2.6726726726726726,0.7404057208024165,76,59.90844847311863
4,2.6826826826826826,0.6967521898404377,76,59.90844847311863
4,2.6926926926926926,0.6647417960254504,76,59.90844847311863
4,2.702702702702702,0.624983500171498,76,59.90844847311863
4,2.7127127127127126,0.5818003600211133,76,59.90844847311863
4,2.722722722722722,0.5241172799194355,76,59.90844847311863
4,2.7327327327327327,0.4821455174204962,76,59.90844847311863
4,2.7427427427427427,0.427855634721292,76,59.90844847311863
4,2.7527527527527527,0.3786998221582028,76,59.90844847311863
4,2.7627627627627627,0.330113334992777,76,59.90844847311863
4,2.7727727727727727,0.2867871901494179,76,59.90844847311863
4,2.7827827827827827,0.2371830726394718,76,59.90844847311863
4,2.7927927927927927,0.1977275154166918,76,59.90844847311863
4,2.8028028028028027,0.1580693552095561,76,59.90844847311863
4,2.8128128128128127,0.1299716348440194,76,59.90844847311863
4,2.8228228228228227,0.0973056658217769,76,59.90844847311863
4,2.8328328328328327,0.0586304418131021,76,59.90844847311863
4,2.8428428428428427,0.0473675489836479,76,59.90844847311863
4,2.8528528528528527,0.025391162571984,76,59.90844847311863
4,2.8628628628628627,0.0133519609196093,76,59.90844847311863
4,2.8728728728728727,0.0124823930331914,76,59.90844847311863
4,2.8828828828828827,0.0061536377978709,76,59.90844847311863
4,2.8928928928928928,0.0025043171047262,76,59.90844847311863
4,2.9029029029029028,-0.0028219362988526,76,59.90844847311863
4,2.9129129129129128,0.0060684882622813,76,59.90844847311863
4,2.9229229229229228,0.0139013514089494,76,59.90844847311863
4,2.932932932932933,0.0015396074788118,76,59.90844847311863
4,2.942942942942943,-0.0037547653118124,76,59.90844847311863
4,2.952952952952953,-0.0072190340077701,76,59.90844847311863
4,2.962962962962963,-0.002697837272432,76,59.90844847311863
4,2.972972972972973,-0.0231276412662328,76,59.90844847311863
4,2.982982982982983,-0.0329760471316441,76,59.90844847311863
4,2.992992992992993,-0.0559606214796669,76,59.90844847311863
4,3.003003003003003,-0.0736470166982843,76,59.90844847311863
4,3.013013013013013,-0.0962693833078282,76,59.90844847311863
4,3.023023023023023,-0.1286840379237565,76,59.90844847311863
4,3.033033033033033,-0.1666029433908411,76,59.90844847311863
4,3.043043043043043,-0.2036103867220378,76,59.90844847311863
4,3.053053053053053,-0.254500409432623,76,59.90844847311863
4,3.063063063063063,-0.2830702597578803,76,59.90844847311863
4,3.073073073073073,-0.3385369293186092,76,59.90844847311863
4,3.083083083083083,-0.4011942104193047,76,59.90844847311863
4,3.093093093093093,-0.4522138269540822,76,59.90844847311863
4,3.103103103103103,-0.4939464298643183,76,59.90844847311863
4,3.113113113113113,-0.5451338300070223,76,59.90844847311863
4,3.123123123123123,-0.5965814133937332,76,59.90844847311863
4,3.133133133133133,-0.6357514385842381,76,59.90844847311863
4,3.143143143143143,-0.6685517861750635,76,59.90844847311863
4,3.153153153153153,-0.7088197974899818,76,59.90844847311863
4,3.163163163163163,-0.737155907845933,76,59.90844847311863
4,3.173173173173173,-0.7614663999565491,76,59.90844847311863
4,3.183183183183183,-0.771722081338009,76,59.90844847311863
4,3.193193193193193,-0.7777793737665986,76,59.90844847311863
4,3.203203203203203,-0.7758467682387873,76,59.90844847311863
4,3.2132132132132134,-0.7572684449035272,76,59.90844847311863
4,3.2232232232232234,-0.7361758081700842,76,59.90844847311863
4,3.2332332332332334,-0.710335216480733,76,59.90844847311863
4,3.2432432432432434,-0.6603621270231308,76,59.90844847311863
4,3.253253253253253,-0.6205319289580989,76,59.90844847311863
4,3.2632632632632634,-0.5638700239718064,76,59.90844847311863
4,3.273273273273273,-0.4936661765352031,76,59.90844847311863
4,3.2832832832832834,-0.4458393660968198,76,59.90844847311863
4,3.293293293293293,-0.3501637046084579,76,59.90844847311863
4,3.3033033033033035,-0.2657595788167938,76,59.90844847311863
4,3.313313313313313,-0.1717593022577168,76,59.90844847311863
4,3.3233233233233235,-0.0897248639988891,76,59.90844847311863
4,3.333333333333333,-0.0051312118210371,76,59.90844847311863
4,3.3433433433433435,0.087894851261446,76,59.90844847311863
4,3.353353353353353,0.1796994484576773,76,59.90844847311863
4,3.3633633633633635,0.2623712201149241,76,59.90844847311863
4,3.373373373373373,0.3450667061694674,76,59.90844847311863
4,3.3833833833833835,0.4288825883927647,76,59.90844847311863
4,3.393393393393393,0.5002575966470668,76,59.90844847311863
4,3.4034034034034035,0.5548540378021789,76,59.90844847311863
4,3.413413413413413,0.617124510447483,76,59.90844847311863
4,3.4234234234234235,0.6726805389511932,76,59.90844847311863
4,3.433433433433433,0.7162091657739723,76,59.90844847311863
4,3.443443443443444,0.7364909330521747,76,59.90844847311863
4,3.4534534534534536,0.7709308673902372,76,59.90844847311863
4,3.463463463463464,0.7695998135643223,76,59.90844847311863
4,3.4734734734734736,0.7870078336451415,76,59.90844847311863
4,3.483483483483484,0.7723840742161786,76,59.90844847311863
4,3.4934934934934936,0.762047589146505,76,59.90844847311863
4,3.503503503503504,0.7353431680716301,76,59.90844847311863
4,3.5135135135135136,0.7069776667239471,76,59.90844847311863
4,3.523523523523524,0.6712718331382422,76,59.90844847311863
4,3.5335335335335336,0.6381151494768165,76,59.90844847311863
4,3.543543543543544,0.5874708275927172,76,59.90844847311863
4,3.5535535535535536,0.5401141949346363,76,59.90844847311863
4,3.563563563563564,0.5004417271440583,76,59.90844847311863
4,3.5735735735735736,0.4453300860609918,76,59.90844847311863
4,3.583583583583584,0.3966086327544813,76,59.90844847311863
4,3.5935935935935936,0.3481866018870354,76,59.90844847311863
4,3.603603603603604,0.2949283866223786,76,59.90844847311863
4,3.6136136136136137,0.2418402791291127,76,59.90844847311863
4,3.623623623623624,0.1994736234439318,76,59.90844847311863
4,3.6336336336336337,0.1671358196082826,76,59.90844847311863
4,3.643643643643644,0.125562590512508,76,59.90844847311863
4,3.6536536536536537,0.0938410498772814,76,59.90844847311863
4,3.663663663663664,0.0668598347891669,76,59.90844847311863
4,3.6736736736736737,0.067012203491798,76,59.90844847311863
4,3.683683683683684,0.0308591972723684,76,59.90844847311863
4,3.6936936936936937,0.0195216792762947,76,59.90844847311863
4,3.703703703703704,0.016890649863645,76,59.90844847311863
4,3.7137137137137137,-0.0031339149629697,76,59.90844847311863
4,3.723723723723724,0.0059247839455354,76,59.90844847311863
4,3.7337337337337337,0.0032752879728319,76,59.90844847311863
4,3.743743743743744,0.0027399638378438,76,59.90844847311863
4,3.7537537537537538,-0.0079100568763396,76,59.90844847311863
4,3.763763763763764,0.0016188066758818,76,59.90844847311863
4,3.7737737737737738,-9.938482152411772e-05,76,59.90844847311863
4,3.783783783783784,-0.005269832567389,76,59.90844847311863
4,3.793793793793794,-0.0045277452713466,76,59.90844847311863
4,3.803803803803804,-0.007769037889346,76,59.90844847311863
4,3.813813813813814,-0.0293093343134543,76,59.90844847311863
4,3.823823823823824,-0.0474561000795967,76,59.90844847311863
4,3.833833833833834,-0.0652894681591435,76,59.90844847311863
4,3.843843843843844,-0.0972046037496179,76,59.90844847311863
4,3.853853853853854,-0.1165927495465396,76,59.90844847311863
4,3.863863863863864,-0.1585027157432642,76,59.90844847311863
4,3.873873873873874,-0.1870778934717913,76,59.90844847311863
4,3.883883883883884,-0.2283938433493494,76,59.90844847311863
4,3.893893893893894,-0.2767730739514706,76,59.90844847311863
4,3.903903903903904,-0.3257033482035706,76,59.90844847311863
4,3.913913913913914,-0.3852311640348024,76,59.90844847311863
4,3.923923923923924,-0.4269493039392587,76,59.90844847311863
4,3.933933933933934,-0.4835710903495185,76,59.90844847311863
4,3.943943943943944,-0.536623037324275,76,59.90844847311863
4,3.953953953953954,-0.5692618063757104,76,59.90844847311863
4,3.963963963963964,-0.6185097205907113,76,59.90844847311863
4,3.973973973973974,-0.6742430003045107,76,59.90844847311863
4,3.983983983983984,-0.7090628831557151,76,59.90844847311863
4,3.993993993993994,-0.7321205596985778,76,59.90844847311863
4,4.004004004004004,-0.7571333286360274,76,59.90844847311863
4,4.014014014014014,-0.7672013788190722,76,59.90844847311863
4,4.024024024024024,-0.7775254748209844,76,59.90844847311863
4,4.034034034034034,-0.7755088363912029,76,59.90844847311863
4,4.044044044044044,-0.7621748509045447,76,59.90844847311863
4,4.054054054054054,-0.7525328729453944,76,59.90844847311863
4,4.064064064064064,-0.7213953165972371,76,59.90844847311863
4,4.074074074074074,-0.6810381433160516,76,59.90844847311863
4,4.084084084084084,-0.6316038124643144,76,59.90844847311863
4,4.094094094094094,-0.5813326626032334,76,59.90844847311863
4,4.104104104104104,-0.5112151113753514,76,59.90844847311863
4,4.114114114114114,-0.4450574834226062,76,59.90844847311863
4,4.124124124124124,-0.3814239996446193,76,59.90844847311863
4,4.134134134134134,-0.2866130141933015,76,59.90844847311863
4,4.144144144144144,-0.2083371090120219,76,59.90844847311863
4,4.1541541541541545,-0.1181594882900045,76,59.90844847311863
4,4.1641641641641645,-0.0137552581564371,76,59.90844847311863
4,4.174174174174175,0.058453904904046,76,59.90844847311863
4,4.1841841841841845,0.1516944711004089,76,59.90844847311863
4,4.1941941941941945,0.2405012352500172,76,59.90844847311863
4,4.2042042042042045,0.3231563986367681,76,59.90844847311863
4,4.214214214214215,0.4074229680403987,76,59.90844847311863
4,4.2242242242242245,0.4888008179533937,76,59.90844847311863
4,4.2342342342342345,0.54739057703512,76,59.90844847311863
4,4.2442442442442445,0.6104535454165313,76,59.90844847311863
4,4.254254254254255,0.6578300242519874,76,59.90844847311863
4,4.2642642642642645,0.6941554694586908,76,59.90844847311863
4,4.2742742742742745,0.7314508796604551,76,59.90844847311863
4,4.2842842842842845,0.7589623378630961,76,59.90844847311863
4,4.294294294294295,0.77504433813631,76,59.90844847311863
4,4.3043043043043046,0.7825719956474761,76,59.90844847311863
4,4.314314314314315,0.7766446168537988,76,59.90844847311863
4,4.324324324324325,0.7612906954922556,76,59.90844847311863
4,4.334334334334335,0.7445883775537862,76,59.90844847311863
4,4.344344344344345,0.7215972605771334,76,59.90844847311863
4,4.354354354354355,0.6936989292774113,76,59.90844847311863
4,4.364364364364365,0.6450373503855235,76,59.90844847311863
4,4.374374374374375,0.6036021772498222,76,59.90844847311863
4,4.384384384384385,0.5599476615727002,76,59.90844847311863
4,4.394394394394395,0.5040585084407769,76,59.90844847311863
4,4.404404404404405,0.4591430494751165,76,59.90844847311863
4,4.414414414414415,0.4037525387956394,76,59.90844847311863
4,4.424424424424425,0.3570510198353714,76,59.90844847311863
4,4.434434434434435,0.3096169266710207,76,59.90844847311863
4,4.444444444444445,0.2555017688171549,76,59.90844847311863
4,4.454454454454455,0.2154773964929282,76,59.90844847311863
4,4.464464464464465,0.1764269034926822,76,59.90844847311863
4,4.474474474474475,0.135458166835952,76,59.90844847311863
4,4.484484484484485,0.1098021945862353,76,59.90844847311863
4,4.494494494494495,0.0806413443210806,76,59.90844847311863
4,4.504504504504505,0.050531241609565,76,59.90844847311863
4,4.514514514514515,0.0394092387818205,76,59.90844847311863
4,4.524524524524525,0.0242071904413726,76,59.90844847311863
4,4.534534534534535,0.0177875086737191,76,59.90844847311863
4,4.544544544544545,-0.0005857357228285,76,59.90844847311863
4,4.554554554554555,0.012541469903299,76,59.90844847311863
4,4.564564564564565,-0.0064667555003263,76,59.90844847311863
4,4.574574574574575,0.0003842730477592,76,59.90844847311863
4,4.584584584584585,-0.0046678508607565,76,59.90844847311863
4,4.594594594594595,-0.0024008127305926,76,59.90844847311863
4,4.604604604604605,0.00118089103876,76,59.90844847311863
4,4.614614614614615,-0.0053762925638659,76,59.90844847311863
4,4.624624624624625,-0.0128778226969634,76,59.90844847311863
4,4.634634634634635,-0.0151784462956579,76,59.90844847311863
4,4.644644644644645,-0.0232007434301564,76,59.90844847311863
4,4.654654654654655,-0.0495018063324553,76,59.90844847311863
4,4.664664664664665,-0.0674955831798568,76,59.90844847311863
4,4.674674674674675,-0.0846835077082998,76,59.90844847311863
4,4.684684684684685,-0.1116888444141515,76,59.90844847311863
4,4.694694694694695,-0.1448184731705928,76,59.90844847311863
4,4.704704704704705,-0.1860782652000357,76,59.90844847311863
4,4.714714714714715,-0.226873495284538,76,59.90844847311863
4,4.724724724724725,-0.2715601238927013,76,59.90844847311863
4,4.734734734734735,-0.3206633862684369,76,59.90844847311863
4,4.744744744744745,-0.3691685279156141,76,59.90844847311863
4,4.754754754754755,-0.4216507931743255,76,59.90844847311863
4,4.764764764764765,-0.4795728914985127,76,59.90844847311863
4,4.774774774774775,-0.5231211902039122,76,59.90844847311863
4,4.784784784784785,-0.5632282633938982,76,59.90844847311863
4,4.794794794794795,-0.6189554826978567,76,59.90844847311863
4,4.804804804804805,-0.6674340906306582,76,59.90844847311863
4,4.814814814814815,-0.6998719493956023,76,59.90844847311863
4,4.824824824824825,-0.7202701107594625,76,59.90844847311863
4,4.834834834834835,-0.7453815427400282,76,59.90844847311863
4,4.844844844844845,-0.7740626167996576,76,59.90844847311863
4,4.854854854854855,-0.7798274948583387,76,59.90844847311863
4,4.864864864864865,-0.7824759531896732,76,59.90844847311863
4,4.874874874874875,-0.7641349174844253,76,59.90844847311863
4,4.884884884884885,-0.7472812822893796,76,59.90844847311863
4,4.894894894894895,-0.7244308769338832,76,59.90844847311863
4,4.904904904904905,-0.6909000357663196,76,59.90844847311863
4,4.914914914914915,-0.6483623616993583,76,59.90844847311863
4,4.924924924924925,-0.5930488098521765,76,59.90844847311863
4,4.934934934934935,-0.5228143794851248,76,59.90844847311863
4,4.944944944944945,-0.4624633294900674,76,59.90844847311863
4,4.954954954954955,-0.3922547029395755,76,59.90844847311863
4,4.964964964964965,-0.3092230215085332,76,59.90844847311863
4,4.974974974974975,-0.2211077897156073,76,59.90844847311863
4,4.984984984984985,-0.1349174161069243,76,59.90844847311863
4,4.994994994994995,-0.0469583346715188,76,59.90844847311863
4,5.005005005005005,0.0436934534677971,76,59.90844847311863
4,5.015015015015015,0.1335019121233054,76,59.90844847311863
4,5.025025025025025,0.2267111597757908,76,59.90844847311863
4,5.035035035035035,0.3067921793585431,76,59.90844847311863
4,5.045045045045045,0.3964412105809816,76,59.90844847311863
4,5.055055055055055,0.4663310196786555,76,59.90844847311863
4,5.065065065065065,0.5317311366642068,76,59.90844847311863
4,5.075075075075075,0.5950007955119482,76,59.90844847311863
4,5.085085085085085,0.6509703116223048,76,59.90844847311863
4,5.095095095095095,0.6984403824621626,76,59.90844847311863
4,5.105105105105105,0.7225696822312555,76,59.90844847311863
4,5.115115115115115,0.7438448379031553,76,59.90844847311863
4,5.125125125125125,0.7759847424806215,76,59.90844847311863
4,5.135135135135135,0.7780458983719647,76,59.90844847311863
4,5.145145145145145,0.7712101414281451,76,59.90844847311863
4,5.155155155155155,0.7599733009876706,76,59.90844847311863
4,5.165165165165165,0.752161454148074,76,59.90844847311863
4,5.175175175175175,0.7269887677477163,76,59.90844847311863
4,5.185185185185185,0.6869209209610131,76,59.90844847311863
4,5.195195195195195,0.6546505700761988,76,59.90844847311863
4,5.205205205205205,0.6192263471750226,76,59.90844847311863
4,5.215215215215215,0.5669036767704853,76,59.90844847311863
4,5.225225225225225,0.5127894267011109,76,59.90844847311863
4,5.235235235235235,0.4687225797586534,76,59.90844847311863
4,5.245245245245245,0.4290707517126595,76,59.90844847311863
4,5.255255255255255,0.3633943740868154,76,59.90844847311863
4,5.265265265265265,0.319955124139357,76,59.90844847311863
4,5.275275275275275,0.2802781334916852,76,59.90844847311863
4,5.285285285285285,0.2241732889310952,76,59.90844847311863
4,5.295295295295295,0.1773091641651713,76,59.90844847311863
4,5.305305305305305,0.147868008138037,76,59.90844847311863
4,5.315315315315315,0.117202881326573,76,59.90844847311863
4,5.325325325325325,0.0878924851701399,76,59.90844847311863
4,5.335335335335335,0.0660011420950055,76,59.90844847311863
4,5.345345345345345,0.0408708969572197,76,59.90844847311863
4,5.355355355355355,0.0283211019050905,76,59.90844847311863
4,5.365365365365365,0.0127982503578667,76,59.90844847311863
4,5.375375375375375,0.0142919755399542,76,59.90844847311863
4,5.385385385385385,0.0024863251785035,76,59.90844847311863
4,5.395395395395395,0.0014598782853128,76,59.90844847311863
4,5.405405405405405,0.0005388359879653,76,59.90844847311863
4,5.415415415415415,-0.0009056466476974,76,59.90844847311863
4,5.425425425425425,-0.0076278479475642,76,59.90844847311863
4,5.435435435435435,0.008082275471854,76,59.90844847311863
4,5.445445445445445,0.0030513613198058,76,59.90844847311863
4,5.455455455455455,-0.0126327832218974,76,59.90844847311863
4,5.465465465465465,-0.0199659193214356,76,59.90844847311863
4,5.475475475475475,-0.0284820680368489,76,59.90844847311863
4,5.485485485485485,-0.0304986681514522,76,59.90844847311863
4,5.495495495495495,-0.0546898929426871,76,59.90844847311863
4,5.505505505505505,-0.08008978828311,76,59.90844847311863
4,5.515515515515515,-0.1133041776976944,76,59.90844847311863
4,5.525525525525525,-0.1433765143848635,76,59.90844847311863
4,5.535535535535535,-0.1824172499458989,76,59.90844847311863
4,5.545545545545545,-0.2165772832411772,76,59.90844847311863
4,5.555555555555555,-0.2514404102020893,76,59.90844847311863
4,5.565565565565565,-0.2961879570640428,76,59.90844847311863
4,5.575575575575575,-0.3564129890502495,76,59.90844847311863
4,5.585585585585585,-0.4097510854287343,76,59.90844847311863
4,5.595595595595595,-0.4576936461041913,76,59.90844847311863
4,5.605605605605605,-0.503927570497868,76,59.90844847311863
4,5.615615615615615,-0.5614111137777484,76,59.90844847311863
4,5.625625625625625,-0.6116381438294773,76,59.90844847311863
4,5.635635635635635,-0.6471439880653364,76,59.90844847311863
4,5.645645645645645,-0.6810457643455161,76,59.90844847311863
4,5.655655655655655,-0.7203812347270875,76,59.90844847311863
4,5.665665665665665,-0.7440645019664517,76,59.90844847311863
4,5.675675675675675,-0.7675967038547172,76,59.90844847311863
4,5.685685685685685,-0.7877943655796797,76,59.90844847311863
4,5.695695695695696,-0.7923481527069648,76,59.90844847311863
4,5.7057057057057055,-0.7813089006661257,76,59.90844847311863
4,5.715715715715716,-0.7576580193688577,76,59.90844847311863
4,5.7257257257257255,-0.7382120794059288,76,59.90844847311863
4,5.735735735735736,-0.6966990270601053,76,59.90844847311863
4,5.7457457457457455,-0.6578427483701834,76,59.90844847311863
4,5.755755755755756,-0.6033930990693239,76,59.90844847311863
4,5.7657657657657655,-0.5465975875168971,76,59.90844847311863
4,5.775775775775776,-0.4751594135148363,76,59.90844847311863
4,5.7857857857857855,-0.405765972400445,76,59.90844847311863
4,5.795795795795796,-0.3236151198394055,76,59.90844847311863
4,5.8058058058058055,-0.2450356183930659,76,59.90844847311863
4,5.815815815815816,-0.1629857576308746,76,59.90844847311863
4,5.8258258258258255,-0.0690784972054052,76,59.90844847311863
4,5.835835835835836,0.0228568100968844,76,59.90844847311863
4,5.8458458458458455,0.111128905871504,76,59.90844847311863
4,5.855855855855856,0.2048080603475517,76,59.90844847311863
4,5.865865865865866,0.2865403103182917,76,59.90844847311863
4,5.875875875875876,0.3652382352777641,76,59.90844847311863
4,5.885885885885886,0.4403576106966492,76,59.90844847311863
4,5.895895895895896,0.5183257196815133,76,59.90844847311863
4,5.905905905905906,0.5724552060676203,76,59.90844847311863
4,5.915915915915916,0.636594440831054,76,59.90844847311863
4,5.925925925925926,0.6805713133203437,76,59.90844847311863
4,5.935935935935936,0.7135784112433455,76,59.90844847311863
4,5.945945945945946,0.7544561501174134,76,59.90844847311863
4,5.955955955955956,0.7719929118729291,76,59.90844847311863
4,5.965965965965966,0.774069610948487,76,59.90844847311863
4,5.975975975975976,0.7694678958168507,76,59.90844847311863
4,5.985985985985986,0.7606703408911157,76,59.90844847311863
4,5.995995995995996,0.7535962335395437,76,59.90844847311863
4,6.006006006006006,0.727715140468658,76,59.90844847311863
4,6.016016016016016,0.7045765903213673,76,59.90844847311863
4,6.026026026026026,0.6605942245092736,76,59.90844847311863
4,6.036036036036036,0.6247176780627167,76,59.90844847311863
4,6.046046046046046,0.5795261767055706,76,59.90844847311863
4,6.056056056056056,0.5384454132800347,76,59.90844847311863
4,6.066066066066066,0.4849954968401616,76,59.90844847311863
4,6.076076076076076,0.4334101978256383,76,59.90844847311863
4,6.086086086086086,0.378267575189635,76,59.90844847311863
4,6.096096096096096,0.3423731787039203,76,59.90844847311863
4,6.106106106106106,0.2773497761883703,76,59.90844847311863
4,6.116116116116116,0.2366908106328759,76,59.90844847311863
4,6.126126126126126,0.1889449385055884,76,59.90844847311863
4,6.136136136136136,0.1583973003382995,76,59.90844847311863
4,6.146146146146146,0.1201322414058618,76,59.90844847311863
4,6.156156156156156,0.0862933215769553,76,59.90844847311863
4,6.166166166166166,0.0730508503245679,76,59.90844847311863
4,6.176176176176176,0.0478632066574852,76,59.90844847311863
4,6.186186186186186,0.0328069636195306,76,59.90844847311863
4,6.196196196196196,0.0195589135295089,76,59.90844847311863
4,6.206206206206206,0.0111518947862778,76,59.90844847311863
4,6.216216216216216,0.0013480380632873,76,59.90844847311863
4,6.226226226226226,-0.005400781614651,76,59.90844847311863
4,6.236236236236236,0.0057659511358026,76,59.90844847311863
4,6.246246246246246,-0.006280405664763,76,59.90844847311863
4,6.256256256256256,0.0006197567859285,76,59.90844847311863
4,6.266266266266266,-0.0003238357927581,76,59.90844847311863
4,6.276276276276276,-0.0004785656689843,76,59.90844847311863
4,6.286286286286286,-0.0053286953816947,76,59.90844847311863
4,6.296296296296296,-0.0168228756241093,76,59.90844847311863
4,6.306306306306306,-0.0193601188419835,76,59.90844847311863
4,6.316316316316316,-0.0258997594645296,76,59.90844847311863
4,6.326326326326326,-0.0600018742450806,76,59.90844847311863
4,6.336336336336336,-0.0711071777388951,76,59.90844847311863
4,6.346346346346346,-0.0979384129599356,76,59.90844847311863
4,6.356356356356356,-0.1328174800927797,76,59.90844847311863
4,6.366366366366366,-0.1613851351507209,76,59.90844847311863
4,6.376376376376376,-0.2160604409749275,76,59.90844847311863
4,6.386386386386386,-0.2484059101030064,76,59.90844847311863
4,6.396396396396396,-0.2986372463280344,76,59.90844847311863
4,6.406406406406406,-0.3434236902880151,76,59.90844847311863
4,6.416416416416417,-0.3985457452863078,76,59.90844847311863
4,6.426426426426427,-0.445334885464767,76,59.90844847311863
4,6.436436436436437,-0.4873209251435024,76,59.90844847311863
4,6.446446446446447,-0.5462157966086595,76,59.90844847311863
4,6.456456456456457,-0.6003249851969651,76,59.90844847311863
4,6.466466466466467,-0.6380187766816304,76,59.90844847311863
4,6.476476476476477,-0.6764390066512714,76,59.90844847311863
4,6.486486486486487,-0.7023961858384304,76,59.90844847311863
4,6.496496496496497,-0.7343061331860227,76,59.90844847311863
4,6.506506506506507,-0.7608612390757172,76,59.90844847311863
4,6.516516516516517,-0.7723106437469328,76,59.90844847311863
4,6.526526526526527,-0.784059502081495,76,59.90844847311863
4,6.536536536536537,-0.7720830930781901,76,59.90844847311863
4,6.546546546546547,-0.768773807704616,76,59.90844847311863
4,6.556556556556557,-0.7381702979526039,76,59.90844847311863
4,6.566566566566567,-0.7104900736162272,76,59.90844847311863
4,6.576576576576577,-0.6716729041672487,76,59.90844847311863
4,6.586586586586587,-0.6157425147584987,76,59.90844847311863
4,6.596596596596597,-0.5639441709046388,76,59.90844847311863
4,6.606606606606607,-0.496518171030578,76,59.90844847311863
4,6.616616616616617,-0.4267252010914831,76,59.90844847311863
4,6.626626626626627,-0.3480145897313756,76,59.90844847311863
4,6.636636636636637,-0.2686071383930836,76,59.90844847311863
4,6.646646646646647,-0.1781809874016656,76,59.90844847311863
4,6.656656656656657,-0.0919282841145789,76,59.90844847311863
4,6.666666666666667,-0.0001046479264117,76,59.90844847311863
4,6.676676676676677,0.0904341041536602,76,59.90844847311863
4,6.686686686686687,0.1793451252061427,76,59.90844847311863
4,6.696696696696697,0.2559043641050764,76,59.90844847311863
4,6.706706706706707,0.3486126387212195,76,59.90844847311863
4,6.716716716716717,0.4223937521615018,76,59.90844847311863
4,6.726726726726727,0.4989963364323246,76,59.90844847311863
4,6.736736736736737,0.5589652160339772,76,59.90844847311863
4,6.746746746746747,0.6179982381092161,76,59.90844847311863
4,6.756756756756757,0.669905457076689,76,59.90844847311863
4,6.766766766766767,0.7031705459630608,76,59.90844847311863
4,6.776776776776777,0.7390400243660066,76,59.90844847311863
4,6.786786786786787,0.7644756687894323,76,59.90844847311863
4,6.796796796796797,0.7743836652156576,76,59.90844847311863
4,6.806806806806807,0.7807103924728704,76,59.90844847311863
4,6.816816816816817,0.7760125064848811,76,59.90844847311863
4,6.826826826826827,0.7567286354528604,76,59.90844847311863
4,6.836836836836837,0.729954567040191,76,59.90844847311863
4,6.846846846846847,0.7132799630308514,76,59.90844847311863
4,6.856856856856857,0.6742585638347255,76,59.90844847311863
4,6.866866866866867,0.6473629548788626,76,59.90844847311863
4,6.876876876876877,0.5888071527796432,76,59.90844847311863
4,6.886886886886887,0.5374193775140446,76,59.90844847311863
4,6.896896896896897,0.4975608647821438,76,59.90844847311863
4,6.906906906906907,0.4441597972789101,76,59.90844847311863
4,6.916916916916917,0.3883251547282597,76,59.90844847311863
4,6.926926926926927,0.3489916198973681,76,59.90844847311863
4,6.936936936936937,0.2941099787615111,76,59.90844847311863
4,6.946946946946947,0.2543863619536599,76,59.90844847311863
4,6.956956956956957,0.197050504225071,76,59.90844847311863
4,6.966966966966967,0.1605489960878688,76,59.90844847311863
4,6.976976976976977,0.1282861736715239,76,59.90844847311863
4,6.986986986986987,0.113050653441437,76,59.90844847311863
4,6.996996996996997,0.0707745740727566,76,59.90844847311863
4,7.007007007007007,0.0505477229124589,76,59.90844847311863
4,7.017017017017017,0.0261903416890919,76,59.90844847311863
4,7.027027027027027,0.0262067731045065,76,59.90844847311863
4,7.037037037037037,0.0126844353496969,76,59.90844847311863
4,7.047047047047047,0.0068985019040634,76,59.90844847311863
4,7.057057057057057,0.0011492329643836,76,59.90844847311863
4,7.067067067067067,0.0006642457032571,76,59.90844847311863
4,7.077077077077077,0.0069094919554381,76,59.90844847311863
4,7.087087087087087,-0.0013254640907873,76,59.90844847311863
4,7.097097097097097,-0.0014667440106363,76,59.90844847311863
4,7.107107107107107,0.0031351979934717,76,59.90844847311863
4,7.117117117117117,-0.0073036943002908,76,59.90844847311863
4,7.127127127127127,-0.0142736272613571,76,59.90844847311863
4,7.137137137137137,-0.0110794075230748,76,59.90844847311863
4,7.147147147147147,-0.031849428480119,76,59.90844847311863
4,7.157157157157157,-0.0513354102719073,76,59.90844847311863
4,7.167167167167167,-0.0705512001377327,76,59.90844847311863
4,7.177177177177177,-0.0838897098144322,76,59.90844847311863
4,7.187187187187187,-0.1224417859463042,76,59.90844847311863
4,7.197197197197197,-0.1516212962948238,76,59.90844847311863
4,7.207207207207207,-0.2008206051276911,76,59.90844847311863
4,7.217217217217217,-0.233302637518575,76,59.90844847311863
4,7.227227227227227,-0.2854927400367519,76,59.90844847311863
4,7.237237237237237,-0.3308882655565616,76,59.90844847311863
4,7.247247247247247,-0.3818718070648607,76,59.90844847311863
4,7.257257257257257,-0.4312841997922842,76,59.90844847311863
4,7.267267267267267,-0.4841106308989407,76,59.90844847311863
4,7.277277277277277,-0.5313116065538913,76,59.90844847311863
4,7.287287287287287,-0.5830927040138681,76,59.90844847311863
4,7.297297297297297,-0.6291839802585577,76,59.90844847311863
4,7.307307307307307,-0.6613045982785617,76,59.90844847311863
4,7.317317317317317,-0.707287911263865,76,59.90844847311863
4,7.327327327327327,-0.7319472165254381,76,59.90844847311863
4,7.337337337337337,-0.7616565646203491,76,59.90844847311863
4,7.347347347347347,-0.7689702157178547,76,59.90844847311863
4,7.357357357357357,-0.7861896441706243,76,59.90844847311863
4,7.367367367367367,-0.775349260090901,76,59.90844847311863
4,7.377377377377377,-0.7709018258507849,76,59.90844847311863
4,7.387387387387387,-0.7525669187049525,76,59.90844847311863
4,7.397397397397397,-0.7141639465295307,76,59.90844847311863
4,7.407407407407407,-0.6823982914242062,76,59.90844847311863
4,7.4174174174174174,-0.6309150329104397,76,59.90844847311863
4,7.4274274274274275,-0.5713090123736914,76,59.90844847311863
4,7.437437437437437,-0.523024257996017,76,59.90844847311863
4,7.447447447447447,-0.451045141845819,76,59.90844847311863
4,7.4574574574574575,-0.3744409853965877,76,59.90844847311863
4,7.4674674674674675,-0.2894659294721941,76,59.90844847311863
4,7.477477477477477,-0.1902561753171419,76,59.90844847311863
4,7.487487487487487,-0.1143717195221361,76,59.90844847311863
4,7.4974974974974975,-0.0285110269880907,76,59.90844847311863
4,7.5075075075075075,0.0759168469448559,76,59.90844847311863
4,7.517517517517517,0.1571602448959523,76,59.90844847311863
4,7.527527527527527,0.242267766742094,76,59.90844847311863
4,7.5375375375375375,0.3256225139214219,76,59.90844847311863
4,7.5475475475475475,0.4105267588120047,76,59.90844847311863
4,7.557557557557557,0.4820267775088633,76,59.90844847311863
4,7.567567567567567,0.5465724588821201,76,59.90844847311863
4,7.5775775775775776,0.6065353840351655,76,59.90844847311863
4,7.587587587587588,0.6692428390754442,76,59.90844847311863
4,7.597597597597598,0.6953958933059192,76,59.90844847311863
4,7.607607607607608,0.7372645263206983,76,59.90844847311863
4,7.617617617617618,0.7709101795480969,76,59.90844847311863
4,7.627627627627628,0.7688469531698192,76,59.90844847311863
4,7.637637637637638,0.7798932212568868,76,59.90844847311863
4,7.647647647647648,0.7780706969589313,76,59.90844847311863
4,7.657657657657658,0.7579284604621097,76,59.90844847311863
4,7.667667667667668,0.746393003445914,76,59.90844847311863
4,7.677677677677678,0.7178466987276219,76,59.90844847311863
4,7.687687687687688,0.6835147241131099,76,59.90844847311863
4,7.697697697697698,0.6395473755069666,76,59.90844847311863
4,7.707707707707708,0.6092857528767976,76,59.90844847311863
4,7.717717717717718,0.5578344075252393,76,59.90844847311863
4,7.727727727727728,0.5058828924019585,76,59.90844847311863
4,7.737737737737738,0.4465278576153326,76,59.90844847311863
4,7.747747747747748,0.3979747494646214,76,59.90844847311863
4,7.757757757757758,0.3547972683416618,76,59.90844847311863
4,7.767767767767768,0.3064128264675395,76,59.90844847311863
4,7.777777777777778,0.2565369358610674,76,59.90844847311863
4,7.787787787787788,0.2121299088490635,76,59.90844847311863
4,7.797797797797798,0.1749302583546879,76,59.90844847311863
4,7.807807807807808,0.1351039881623092,76,59.90844847311863
4,7.817817817817818,0.1165766664584029,76,59.90844847311863
4,7.827827827827828,0.0844204804803381,76,59.90844847311863
4,7.837837837837838,0.0590339558915106,76,59.90844847311863
4,7.847847847847848,0.0316373361317293,76,59.90844847311863
4,7.857857857857858,0.032188687457642,76,59.90844847311863
4,7.867867867867868,0.0182130253624229,76,59.90844847311863
4,7.877877877877878,0.0119070598633801,76,59.90844847311863
4,7.887887887887888,0.0027235012487772,76,59.90844847311863
4,7.897897897897898,0.0084613519784726,76,59.90844847311863
4,7.907907907907908,-0.0013481661429169,76,59.90844847311863
4,7.917917917917918,0.0079115790951059,76,59.90844847311863
4,7.927927927927928,-0.0098629316743177,76,59.90844847311863
4,7.937937937937938,-0.0018207716914827,76,59.90844847311863
4,7.947947947947948,0.0034347424662545,76,59.90844847311863
4,7.957957957957958,-0.0126631011490618,76,59.90844847311863
4,7.967967967967968,-0.0181775339670325,76,59.90844847311863
4,7.977977977977978,-0.0303030625924776,76,59.90844847311863
4,7.987987987987988,-0.0448218021163344,76,59.90844847311863
4,7.997997997997998,-0.0648858269578768,76,59.90844847311863
4,8.008008008008009,-0.0950471061762067,76,59.90844847311863
4,8.018018018018019,-0.1095593813328745,76,59.90844847311863
4,8.028028028028029,-0.1522127868901095,76,59.90844847311863
4,8.038038038038039,-0.1932698688682889,76,59.90844847311863
4,8.048048048048049,-0.2341667110146976,76,59.90844847311863
4,8.058058058058059,-0.272586480478049,76,59.90844847311863
4,8.068068068068069,-0.307992058839762,76,59.90844847311863
4,8.078078078078079,-0.3676899209530112,76,59.90844847311863
4,8.088088088088089,-0.4175924590698041,76,59.90844847311863
4,8.098098098098099,-0.4732166408696972,76,59.90844847311863
4,8.108108108108109,-0.5279916113298351,76,59.90844847311863
4,8.118118118118119,-0.570751831617909,76,59.90844847311863
4,8.128128128128129,-0.6174864695416026,76,59.90844847311863
4,8.138138138138139,-0.6545045193071506,76,59.90844847311863
4,8.148148148148149,-0.692434137689955,76,59.90844847311863
4,8.158158158158159,-0.728360940910723,76,59.90844847311863
4,8.168168168168169,-0.761940525675181,76,59.90844847311863
4,8.178178178178179,-0.7749586196319816,76,59.90844847311863
4,8.188188188188189,-0.7840911680884595,76,59.90844847311863
4,8.198198198198199,-0.7799772567803835,76,59.90844847311863
4,8.208208208208209,-0.7702498009333731,76,59.90844847311863
4,8.218218218218219,-0.7526639921125621,76,59.90844847311863
4,8.228228228228229,-0.7330286796540126,76,59.90844847311863
4,8.238238238238239,-0.691426928004148,76,59.90844847311863
4,8.248248248248249,-0.6529794589573908,76,59.90844847311863
4,8.258258258258259,-0.6005524081918215,76,59.90844847311863
4,8.268268268268269,-0.5329865222028545,76,59.90844847311863
4,8.278278278278279,-0.4616581151996525,76,59.90844847311863
4,8.288288288288289,-0.3825922085877736,76,59.90844847311863
4,8.298298298298299,-0.2998335881938286,76,59.90844847311863
4,8.308308308308309,-0.2293136676050003,76,59.90844847311863
4,8.318318318318319,-0.1371467638302008,76,59.90844847311863
4,8.328328328328329,-0.0479099254138666,76,59.90844847311863
4,8.338338338338339,0.0496683256061973,76,59.90844847311863
4,8.348348348348349,0.1363393907776938,76,59.90844847311863
4,8.358358358358359,0.221777463182025,76,59.90844847311863
4,8.368368368368369,0.3104423632995622,76,59.90844847311863
4,8.378378378378379,0.3903147415313687,76,59.90844847311863
4,8.388388388388389,0.4685462727839244,76,59.90844847311863
4,8.398398398398399,0.5418624082113767,76,59.90844847311863
4,8.408408408408409,0.5886131201947625,76,59.90844847311863
4,8.418418418418419,0.6496431407598927,76,59.90844847311863
4,8.428428428428429,0.6970270525435404,76,59.90844847311863
4,8.438438438438439,0.7228051869963756,76,59.90844847311863
4,8.448448448448449,0.7461719692544676,76,59.90844847311863
4,8.458458458458459,0.7844226005711074,76,59.90844847311863
4,8.468468468468469,0.7784616248516018,76,59.90844847311863
4,8.478478478478479,0.7675933258410143,76,59.90844847311863
4,8.488488488488489,0.7705826208926781,76,59.90844847311863
4,8.498498498498499,0.7519395986756117,76,59.90844847311863
4,8.508508508508509,0.7141684478356117,76,59.90844847311863
4,8.518518518518519,0.6930843913391473,76,59.90844847311863
4,8.528528528528529,0.6638450653097056,76,59.90844847311863
4,8.538538538538539,0.6154383387371881,76,59.90844847311863
4,8.548548548548549,0.5621337689118697,76,59.90844847311863
4,8.558558558558559,0.5171256614671079,76,59.90844847311863
4,8.568568568568569,0.4780093350939916,76,59.90844847311863
4,8.578578578578579,0.4220635938311068,76,59.90844847311863
4,8.588588588588589,0.3646847125056826,76,59.90844847311863
4,8.598598598598599,0.3179909081935504,76,59.90844847311863
4,8.608608608608609,0.2736426005813239,76,59.90844847311863
4,8.618618618618619,0.2293790472712235,76,59.90844847311863
4,8.62862862862863,0.1907839235027068,76,59.90844847311863
4,8.63863863863864,0.1409410048350887,76,59.90844847311863
4,8.64864864864865,0.1126314453802954,76,59.90844847311863
4,8.65865865865866,0.0836499857215753,76,59.90844847311863
4,8.66866866866867,0.0712510659317132,76,59.90844847311863
4,8.67867867867868,0.051706312425925,76,59.90844847311863
4,8.68868868868869,0.0283978550278379,76,59.90844847311863
4,8.6986986986987,0.0175662612080201,76,59.90844847311863
4,8.70870870870871,0.0105642614233908,76,59.90844847311863
4,8.71871871871872,0.0003514481545695,76,59.90844847311863
4,8.72872872872873,-0.0037971571484199,76,59.90844847311863
4,8.73873873873874,0.0057862096276545,76,59.90844847311863
4,8.74874874874875,0.0056396976275152,76,59.90844847311863
4,8.75875875875876,-0.0054632764533879,76,59.90844847311863
4,8.76876876876877,-0.0016437724384895,76,59.90844847311863
4,8.77877877877878,0.0008479215692544,76,59.90844847311863
4,8.78878878878879,-0.0053899536910244,76,59.90844847311863
4,8.7987987987988,-0.0136759748141489,76,59.90844847311863
4,8.80880880880881,-0.0174493009143042,76,59.90844847311863
4,8.81881881881882,-0.0383714559013171,76,59.90844847311863
4,8.82882882882883,-0.0518029564640821,76,59.90844847311863
4,8.83883883883884,-0.0789422678436235,76,59.90844847311863
4,8.84884884884885,-0.0990349598205393,76,59.90844847311863
4,8.85885885885886,-0.1427647989584786,76,59.90844847311863
4,8.86886886886887,-0.1823600308531688,76,59.90844847311863
4,8.87887887887888,-0.2157993170829434,76,59.90844847311863
4,8.88888888888889,-0.2597571147830319,76,59.90844847311863
4,8.8988988988989,-0.3000674782057811,76,59.90844847311863
4,8.90890890890891,-0.3576172837140718,76,59.90844847311863
4,8.91891891891892,-0.4023024729898566,76,59.90844847311863
4,8.92892892892893,-0.4569269834546337,76,59.90844847311863
4,8.93893893893894,-0.5134978788394511,76,59.90844847311863
4,8.94894894894895,-0.5552024003312095,76,59.90844847311863
4,8.95895895895896,-0.5985402112318277,76,59.90844847311863
4,8.96896896896897,-0.6418612060623474,76,59.90844847311863
4,8.97897897897898,-0.6874158945758974,76,59.90844847311863
4,8.98898898898899,-0.7189417107563295,76,59.90844847311863
4,8.998998998999,-0.7532686870247955,76,59.90844847311863
4,9.00900900900901,-0.7688435678146892,76,59.90844847311863
4,9.01901901901902,-0.7708106406731294,76,59.90844847311863
4,9.02902902902903,-0.7860108621771383,76,59.90844847311863
4,9.03903903903904,-0.7808000486237096,76,59.90844847311863
4,9.04904904904905,-0.7585374392087071,76,59.90844847311863
4,9.05905905905906,-0.7355530143709837,76,59.90844847311863
4,9.06906906906907,-0.7104437164403631,76,59.90844847311863
4,9.07907907907908,-0.6554069311612736,76,59.90844847311863
4,9.08908908908909,-0.5999945730172405,76,59.90844847311863
4,9.0990990990991,-0.5451374847679659,76,59.90844847311863
4,9.10910910910911,-0.4830479449346152,76,59.90844847311863
4,9.11911911911912,-0.4072796094491739,76,59.90844847311863
4,9.12912912912913,-0.3315627858192831,76,59.90844847311863
4,9.13913913913914,-0.2407592472931906,76,59.90844847311863
4,9.14914914914915,-0.1585690164623376,76,59.90844847311863
4,9.15915915915916,-0.0610553299812685,76,59.90844847311863
4,9.16916916916917,0.0275128956753242,76,59.90844847311863
4,9.17917917917918,0.1103810447131918,76,59.90844847311863
4,9.18918918918919,0.1963411280653123,76,59.90844847311863
4,9.1991991991992,0.2839867887606601,76,59.90844847311863
4,9.20920920920921,0.3640768039080541,76,59.90844847311863
4,9.21921921921922,0.4467566930356234,76,59.90844847311863
4,9.22922922922923,0.5136377896860476,76,59.90844847311863
4,9.23923923923924,0.5837902162402197,76,59.90844847311863
4,9.24924924924925,0.6340520262011298,76,59.90844847311863
4,9.25925925925926,0.6839741029519061,76,59.90844847311863
4,9.26926926926927,0.721775203608726,76,59.90844847311863
4,9.27927927927928,0.7555058068737385,76,59.90844847311863
4,9.28928928928929,0.7668418138922853,76,59.90844847311863
4,9.2992992992993,0.7864372056753746,76,59.90844847311863
4,9.30930930930931,0.7824361293193073,76,59.90844847311863
4,9.31931931931932,0.7730754503634678,76,59.90844847311863
4,9.32932932932933,0.7572183905361024,76,59.90844847311863
4,9.33933933933934,0.7434138764935304,76,59.90844847311863
4,9.34934934934935,0.6987238443882527,76,59.90844847311863
4,9.35935935935936,0.6653556432006382,76,59.90844847311863
4,9.36936936936937,0.6310980049855601,76,59.90844847311863
4,9.37937937937938,0.5862849887652745,76,59.90844847311863
4,9.38938938938939,0.5322531821587655,76,59.90844847311863
4,9.3993993993994,0.4781259728156353,76,59.90844847311863
4,9.40940940940941,0.4357157330837491,76,59.90844847311863
4,9.41941941941942,0.3856349402403803,76,59.90844847311863
4,9.42942942942943,0.3249500767680573,76,59.90844847311863
4,9.43943943943944,0.27909877629441,76,59.90844847311863
4,9.44944944944945,0.2292809978369701,76,59.90844847311863
4,9.45945945945946,0.2016583053901087,76,59.90844847311863
4,9.46946946946947,0.1528779642196847,76,59.90844847311863
4,9.47947947947948,0.1243344953945854,76,59.90844847311863
4,9.48948948948949,0.096900488821574,76,59.90844847311863
4,9.4994994994995,0.0669940675345653,76,59.90844847311863
4,9.50950950950951,0.0475539595531748,76,59.90844847311863
4,9.51951951951952,0.0303830436408778,76,59.90844847311863
4,9.52952952952953,0.0134931150461624,76,59.90844847311863
4,9.53953953953954,0.0070449976945764,76,59.90844847311863
4,9.54954954954955,0.0008101697349186,76,59.90844847311863
4,9.55955955955956,0.003651442337738,76,59.90844847311863
4,9.56956956956957,0.0049399424529082,76,59.90844847311863
4,9.57957957957958,-0.0008407190730768,76,59.90844847311863
4,9.58958958958959,-0.0045008738329556,76,59.90844847311863
4,9.5995995995996,-0.0048511652889967,76,59.90844847311863
4,9.60960960960961,-0.0029886030221685,76,59.90844847311863
4,9.61961961961962,-0.0033484671807395,76,59.90844847311863
4,9.62962962962963,-0.0093755305509799,76,59.90844847311863
4,9.63963963963964,-0.0254416690874341,76,59.90844847311863
4,9.64964964964965,-0.0415997882264853,76,59.90844847311863
4,9.65965965965966,-0.0446606460484961,76,59.90844847311863
4,9.66966966966967,-0.0684605713511064,76,59.90844847311863
4,9.67967967967968,-0.1029946650442402,76,59.90844847311863
4,9.68968968968969,-0.1348155816641975,76,59.90844847311863
4,9.6996996996997,-0.1692279949712116,76,59.90844847311863
4,9.70970970970971,-0.2019542246302344,76,59.90844847311863
4,9.71971971971972,-0.2531406188252948,76,59.90844847311863
4,9.72972972972973,-0.2955800578891582,76,59.90844847311863
4,9.73973973973974,-0.3437843374427191,76,59.90844847311863
4,9.74974974974975,-0.3921365311033683,76,59.90844847311863
4,9.75975975975976,-0.4535265548207559,76,59.90844847311863
4,9.76976976976977,-0.4906057151385676,76,59.90844847311863
4,9.77977977977978,-0.5485832868437241,76,59.90844847311863
4,9.78978978978979,-0.5911328056380958,76,59.90844847311863
4,9.7997997997998,-0.6276519843611688,76,59.90844847311863
4,9.80980980980981,-0.6758824939830991,76,59.90844847311863
4,9.81981981981982,-0.7152297994768007,76,59.90844847311863
4,9.82982982982983,-0.7304189773592729,76,59.90844847311863
4,9.83983983983984,-0.7618419598088627,76,59.90844847311863
4,9.84984984984985,-0.7721767310315256,76,59.90844847311863
4,9.85985985985986,-0.7834283923264028,76,59.90844847311863
4,9.86986986986987,-0.7798555460406492,76,59.90844847311863
4,9.87987987987988,-0.7645728145251989,76,59.90844847311863
4,9.88988988988989,-0.7505755157864402,76,59.90844847311863
4,9.8998998998999,-0.7098537347651477,76,59.90844847311863
4,9.90990990990991,-0.6753016345060653,76,59.90844847311863
4,9.91991991991992,-0.6229902807808851,76,59.90844847311863
4,9.92992992992993,-0.5661894989089715,76,59.90844847311863
4,9.93993993993994,-0.5029777094720416,76,59.90844847311863
4,9.94994994994995,-0.4300099403479298,76,59.90844847311863
4,9.95995995995996,-0.3546381267608708,76,59.90844847311863
4,9.96996996996997,-0.2623855618816356,76,59.90844847311863
4,9.97997997997998,-0.1722661013939569,76,59.90844847311863
4,9.98998998998999,-0.0986891287709253,76,59.90844847311863
4,10.0,0.0067960110136051,76,59.90844847311863
