Subject_ID,Time,PPG,HR,HRV
16,0.0,0.0095993531035599,80,90.72077350361086
16,0.01001001001001,0.0918820305527673,80,90.72077350361086
16,0.02002002002002,0.173971149709866,80,90.72077350361086
16,0.03003003003003,0.2765383414864277,80,90.72077350361086
16,0.04004004004004,0.3396191915836994,80,90.72077350361086
16,0.05005005005005,0.419659498417216,80,90.72077350361086
16,0.06006006006006,0.5018177012493085,80,90.72077350361086
16,0.07007007007007,0.5651615635278515,80,90.72077350361086
16,0.08008008008008,0.6169761289781343,80,90.72077350361086
16,0.09009009009009,0.6721068837562564,80,90.72077350361086
16,0.1001001001001,0.7164488264089905,80,90.72077350361086
16,0.1101101101101101,0.7446249269895171,80,90.72077350361086
16,0.1201201201201201,0.771141638728971,80,90.72077350361086
16,0.1301301301301301,0.7801068811471523,80,90.72077350361086
16,0.1401401401401401,0.7818786927944552,80,90.72077350361086
16,0.1501501501501501,0.7707776113968235,80,90.72077350361086
16,0.1601601601601601,0.765351782506206,80,90.72077350361086
16,0.1701701701701701,0.7371384918991816,80,90.72077350361086
16,0.1801801801801801,0.7164694727590405,80,90.72077350361086
16,0.1901901901901901,0.6739141540313301,80,90.72077350361086
16,0.2002002002002001,0.6333695667008162,80,90.72077350361086
16,0.2102102102102102,0.5937369612014112,80,90.72077350361086
16,0.2202202202202202,0.5524670765621899,80,90.72077350361086
16,0.2302302302302302,0.501896851176452,80,90.72077350361086
16,0.2402402402402402,0.4520724202549567,80,90.72077350361086
16,0.2502502502502503,0.3886487908544296,80,90.72077350361086
16,0.2602602602602603,0.3425680313789687,80,90.72077350361086
16,0.2702702702702703,0.2950069602924414,80,90.72077350361086
16,0.2802802802802803,0.2563026566144171,80,90.72077350361086
16,0.2902902902902903,0.2005975190083545,80,90.72077350361086
16,0.3003003003003003,0.1641169307841438,80,90.72077350361086
16,0.3103103103103103,0.1285185137028112,80,90.72077350361086
16,0.3203203203203203,0.10019797610715,80,90.72077350361086
16,0.3303303303303303,0.0777279288177843,80,90.72077350361086
16,0.3403403403403403,0.0493894356688693,80,90.72077350361086
16,0.3503503503503503,0.0345140784925392,80,90.72077350361086
16,0.3603603603603603,0.0198970836316067,80,90.72077350361086
16,0.3703703703703703,0.0056101430354833,80,90.72077350361086
16,0.3803803803803803,0.0076362265949093,80,90.72077350361086
16,0.3903903903903903,0.0042276576005912,80,90.72077350361086
16,0.4004004004004003,-0.0020996153489646,80,90.72077350361086
16,0.4104104104104104,-0.0051952446697361,80,90.72077350361086
16,0.4204204204204204,-0.0020787005716489,80,90.72077350361086
16,0.4304304304304304,-0.0006601456512044,80,90.72077350361086
16,0.4404404404404404,0.001051961342932,80,90.72077350361086
16,0.4504504504504504,-0.0137636314336291,80,90.72077350361086
16,0.4604604604604604,-0.00838598985132,80,90.72077350361086
16,0.4704704704704704,-0.0229281680960155,80,90.72077350361086
16,0.4804804804804805,-0.0251497084267658,80,90.72077350361086
16,0.4904904904904905,-0.0483814345885303,80,90.72077350361086
16,0.5005005005005005,-0.0676572904287559,80,90.72077350361086
16,0.5105105105105106,-0.0966581441280552,80,90.72077350361086
16,0.5205205205205206,-0.113229164668794,80,90.72077350361086
16,0.5305305305305306,-0.1504168611536661,80,90.72077350361086
16,0.5405405405405406,-0.2028684004524569,80,90.72077350361086
16,0.5505505505505506,-0.2421740819405735,80,90.72077350361086
16,0.5605605605605606,-0.2817294273065069,80,90.72077350361086
16,0.5705705705705706,-0.3290518303630977,80,90.72077350361086
16,0.5805805805805806,-0.3770850726568786,80,90.72077350361086
16,0.5905905905905906,-0.4332764144889378,80,90.72077350361086
16,0.6006006006006006,-0.4810875560158258,80,90.72077350361086
16,0.6106106106106106,-0.5306248708250667,80,90.72077350361086
16,0.6206206206206206,-0.5947997870775321,80,90.72077350361086
16,0.6306306306306306,-0.6191705874257206,80,90.72077350361086
16,0.6406406406406406,-0.6616447133282052,80,90.72077350361086
16,0.6506506506506506,-0.7031744255410218,80,90.72077350361086
16,0.6606606606606606,-0.7344386639037653,80,90.72077350361086
16,0.6706706706706707,-0.7562345771952158,80,90.72077350361086
16,0.6806806806806807,-0.7636572292087391,80,90.72077350361086
16,0.6906906906906907,-0.7770552836920077,80,90.72077350361086
16,0.7007007007007007,-0.7759958709935488,80,90.72077350361086
16,0.7107107107107107,-0.7721178768921693,80,90.72077350361086
16,0.7207207207207207,-0.7462843665164307,80,90.72077350361086
16,0.7307307307307307,-0.7174685498955528,80,90.72077350361086
16,0.7407407407407407,-0.6815342202250692,80,90.72077350361086
16,0.7507507507507507,-0.6317211932958178,80,90.72077350361086
16,0.7607607607607607,-0.5801851594258621,80,90.72077350361086
16,0.7707707707707707,-0.5143474047885661,80,90.72077350361086
16,0.7807807807807807,-0.4429678193998995,80,90.72077350361086
16,0.7907907907907907,-0.3740754215887674,80,90.72077350361086
16,0.8008008008008007,-0.2915609837400943,80,90.72077350361086
16,0.8108108108108109,-0.1958732395684183,80,90.72077350361086
16,0.8208208208208209,-0.1053062160488048,80,90.72077350361086
16,0.8308308308308309,-0.0226939248184041,80,90.72077350361086
16,0.8408408408408409,0.0582464142435483,80,90.72077350361086
16,0.8508508508508509,0.1587990263341153,80,90.72077350361086
16,0.8608608608608609,0.2433525049783924,80,90.72077350361086
16,0.8708708708708709,0.3253608302475645,80,90.72077350361086
16,0.8808808808808809,0.4098353692623921,80,90.72077350361086
16,0.8908908908908909,0.4843352520535388,80,90.72077350361086
16,0.9009009009009008,0.5482399840113679,80,90.72077350361086
16,0.9109109109109108,0.616330558542186,80,90.72077350361086
16,0.9209209209209208,0.6589028130462367,80,90.72077350361086
16,0.9309309309309308,0.6891496865999847,80,90.72077350361086
16,0.9409409409409408,0.7351226670347534,80,90.72077350361086
16,0.950950950950951,0.7486788900515763,80,90.72077350361086
16,0.960960960960961,0.7713120892081439,80,90.72077350361086
16,0.970970970970971,0.7851868541524947,80,90.72077350361086
16,0.980980980980981,0.7734882659879907,80,90.72077350361086
16,0.990990990990991,0.7659215335906254,80,90.72077350361086
16,1.001001001001001,0.7477866883489407,80,90.72077350361086
16,1.011011011011011,0.7249606998422219,80,90.72077350361086
16,1.021021021021021,0.6819416736223468,80,90.72077350361086
16,1.031031031031031,0.642129097897389,80,90.72077350361086
16,1.0410410410410411,0.5975308821308815,80,90.72077350361086
16,1.0510510510510511,0.5497752371318142,80,90.72077350361086
16,1.0610610610610611,0.5093609286685905,80,90.72077350361086
16,1.0710710710710711,0.4588582283428469,80,90.72077350361086
16,1.0810810810810811,0.4051869093675815,80,90.72077350361086
16,1.0910910910910911,0.3599717627445118,80,90.72077350361086
16,1.1011011011011012,0.3098138668759493,80,90.72077350361086
16,1.1111111111111112,0.2595779148802344,80,90.72077350361086
16,1.1211211211211212,0.2190082540983449,80,90.72077350361086
16,1.1311311311311312,0.1685988269999105,80,90.72077350361086
16,1.1411411411411412,0.1394640709497161,80,90.72077350361086
16,1.1511511511511512,0.1037049070637177,80,90.72077350361086
16,1.1611611611611612,0.0888695093756171,80,90.72077350361086
16,1.1711711711711712,0.0613687495590485,80,90.72077350361086
16,1.1811811811811812,0.0456056967930909,80,90.72077350361086
16,1.1911911911911912,0.0259954048132737,80,90.72077350361086
16,1.2012012012012012,0.0161439016076131,80,90.72077350361086
16,1.2112112112112112,-0.0009558335835899,80,90.72077350361086
16,1.2212212212212212,-0.0077361901339687,80,90.72077350361086
16,1.2312312312312312,-0.008416315798395,80,90.72077350361086
16,1.2412412412412412,0.0040474778235571,80,90.72077350361086
16,1.2512512512512513,-0.0006677610807985,80,90.72077350361086
16,1.2612612612612613,-0.0005079197938904,80,90.72077350361086
16,1.2712712712712713,0.0013630874051108,80,90.72077350361086
16,1.2812812812812813,-0.0043642374580895,80,90.72077350361086
16,1.2912912912912913,-0.0083623077217105,80,90.72077350361086
16,1.3013013013013013,-0.0167061420765389,80,90.72077350361086
16,1.3113113113113113,-0.03556121222685,80,90.72077350361086
16,1.3213213213213213,-0.0372775804492021,80,90.72077350361086
16,1.3313313313313313,-0.0612871920944458,80,90.72077350361086
16,1.3413413413413413,-0.0852565976275483,80,90.72077350361086
16,1.351351351351351,-0.1151149788080031,80,90.72077350361086
16,1.361361361361361,-0.1498183894304857,80,90.72077350361086
16,1.371371371371371,-0.1911612205895516,80,90.72077350361086
16,1.3813813813813811,-0.2218357683492075,80,90.72077350361086
16,1.3913913913913911,-0.2648402146213291,80,90.72077350361086
16,1.4014014014014011,-0.3135868694007874,80,90.72077350361086
16,1.4114114114114114,-0.3761016879598204,80,90.72077350361086
16,1.4214214214214214,-0.4156343246949911,80,90.72077350361086
16,1.4314314314314314,-0.4682242439041739,80,90.72077350361086
16,1.4414414414414414,-0.520622721143159,80,90.72077350361086
16,1.4514514514514514,-0.5699193383116873,80,90.72077350361086
16,1.4614614614614614,-0.6120828446779626,80,90.72077350361086
16,1.4714714714714714,-0.6596405690901275,80,90.72077350361086
16,1.4814814814814814,-0.6942218428109074,80,90.72077350361086
16,1.4914914914914914,-0.7291555913288993,80,90.72077350361086
16,1.5015015015015014,-0.7510376509492581,80,90.72077350361086
16,1.5115115115115114,-0.7662116335330403,80,90.72077350361086
16,1.5215215215215214,-0.7787937991217105,80,90.72077350361086
16,1.5315315315315314,-0.7820283512670021,80,90.72077350361086
16,1.5415415415415414,-0.7660027421934638,80,90.72077350361086
16,1.5515515515515514,-0.7561107617007173,80,90.72077350361086
16,1.5615615615615617,-0.7337593976092388,80,90.72077350361086
16,1.5715715715715717,-0.6941416863940298,80,90.72077350361086
16,1.5815815815815817,-0.6477528519243081,80,90.72077350361086
16,1.5915915915915917,-0.5933698203073698,80,90.72077350361086
16,1.6016016016016017,-0.5309796931617475,80,90.72077350361086
16,1.6116116116116117,-0.4744638794074044,80,90.72077350361086
16,1.6216216216216215,-0.3858374083862052,80,90.72077350361086
16,1.6316316316316315,-0.3051211449853392,80,90.72077350361086
16,1.6416416416416415,-0.2191240792087368,80,90.72077350361086
16,1.6516516516516515,-0.1422606089416141,80,90.72077350361086
16,1.6616616616616615,-0.0539849974683706,80,90.72077350361086
16,1.6716716716716715,0.0446954056607666,80,90.72077350361086
16,1.6816816816816818,0.13139081751674,80,90.72077350361086
16,1.6916916916916918,0.2318480347367196,80,90.72077350361086
16,1.7017017017017018,0.3110123762364513,80,90.72077350361086
16,1.7117117117117118,0.3894273976369538,80,90.72077350361086
16,1.7217217217217218,0.4674109779657819,80,90.72077350361086
16,1.7317317317317318,0.5233173885806679,80,90.72077350361086
16,1.7417417417417418,0.5965392399646918,80,90.72077350361086
16,1.7517517517517518,0.6339259760984655,80,90.72077350361086
16,1.7617617617617618,0.6912699025079506,80,90.72077350361086
16,1.7717717717717718,0.720839234560762,80,90.72077350361086
16,1.7817817817817818,0.7498728892044596,80,90.72077350361086
16,1.7917917917917918,0.7736016268220725,80,90.72077350361086
16,1.8018018018018016,0.7751304637166762,80,90.72077350361086
16,1.811811811811812,0.7812489499614946,80,90.72077350361086
16,1.8218218218218216,0.7706599314497662,80,90.72077350361086
16,1.831831831831832,0.7588040431575748,80,90.72077350361086
16,1.8418418418418416,0.7205973536989,80,90.72077350361086
16,1.851851851851852,0.6910492071565324,80,90.72077350361086
16,1.8618618618618616,0.6542644922547827,80,90.72077350361086
16,1.871871871871872,0.614196415358994,80,90.72077350361086
16,1.8818818818818817,0.556424462437823,80,90.72077350361086
16,1.891891891891892,0.526616346269239,80,90.72077350361086
16,1.901901901901902,0.4737235477721632,80,90.72077350361086
16,1.911911911911912,0.4219244592724471,80,90.72077350361086
16,1.921921921921922,0.3663031332727728,80,90.72077350361086
16,1.931931931931932,0.3116951228062709,80,90.72077350361086
16,1.941941941941942,0.280726146544675,80,90.72077350361086
16,1.951951951951952,0.2284138489254646,80,90.72077350361086
16,1.961961961961962,0.1888499110260048,80,90.72077350361086
16,1.971971971971972,0.1541998436451693,80,90.72077350361086
16,1.981981981981982,0.1143804243074586,80,90.72077350361086
16,1.991991991991992,0.0927160064633703,80,90.72077350361086
16,2.002002002002002,0.0638873756367046,80,90.72077350361086
16,2.012012012012012,0.0458925061290907,80,90.72077350361086
16,2.022022022022022,0.0255336838402448,80,90.72077350361086
16,2.032032032032032,0.0179805003451879,80,90.72077350361086
16,2.042042042042042,0.010094820605777,80,90.72077350361086
16,2.052052052052052,0.0116872449167769,80,90.72077350361086
16,2.062062062062062,-0.0071144730366794,80,90.72077350361086
16,2.072072072072072,0.0051025280581691,80,90.72077350361086
16,2.0820820820820822,0.0039766668435905,80,90.72077350361086
16,2.092092092092092,0.00898716476144,80,90.72077350361086
16,2.1021021021021022,-0.0079321451720385,80,90.72077350361086
16,2.112112112112112,-0.0111003152574608,80,90.72077350361086
16,2.1221221221221223,-0.0147065068442643,80,90.72077350361086
16,2.1321321321321323,-0.0140922704494249,80,90.72077350361086
16,2.1421421421421423,-0.029134773279398,80,90.72077350361086
16,2.1521521521521523,-0.0343090009688503,80,90.72077350361086
16,2.1621621621621623,-0.0641432837810394,80,90.72077350361086
16,2.1721721721721723,-0.0753485668463006,80,90.72077350361086
16,2.1821821821821823,-0.1104356415305717,80,90.72077350361086
16,2.1921921921921923,-0.1382847152565804,80,90.72077350361086
16,2.2022022022022023,-0.1759717629561141,80,90.72077350361086
16,2.2122122122122123,-0.2161856142340747,80,90.72077350361086
16,2.2222222222222223,-0.2594204920821402,80,90.72077350361086
16,2.2322322322322323,-0.3026456549255395,80,90.72077350361086
16,2.2422422422422423,-0.3467409352548953,80,90.72077350361086
16,2.2522522522522523,-0.4053728722420212,80,90.72077350361086
16,2.2622622622622623,-0.4579778146873731,80,90.72077350361086
16,2.2722722722722724,-0.5073776113237953,80,90.72077350361086
16,2.2822822822822824,-0.5535943112168861,80,90.72077350361086
16,2.2922922922922924,-0.6032972551898779,80,90.72077350361086
16,2.3023023023023024,-0.6536242899039194,80,90.72077350361086
16,2.3123123123123124,-0.6836781971422841,80,90.72077350361086
16,2.3223223223223224,-0.7140931006121369,80,90.72077350361086
16,2.3323323323323324,-0.7472794023761813,80,90.72077350361086
16,2.3423423423423424,-0.7654306355398468,80,90.72077350361086
16,2.3523523523523524,-0.7748902890972923,80,90.72077350361086
16,2.3623623623623624,-0.7781486010791038,80,90.72077350361086
16,2.3723723723723724,-0.770547378806583,80,90.72077350361086
16,2.3823823823823824,-0.7603437749352773,80,90.72077350361086
16,2.3923923923923924,-0.7350268268783445,80,90.72077350361086
16,2.4024024024024024,-0.6994353356587285,80,90.72077350361086
16,2.4124124124124124,-0.6629075252367276,80,90.72077350361086
16,2.4224224224224224,-0.6110000394763146,80,90.72077350361086
16,2.4324324324324325,-0.5549617286266881,80,90.72077350361086
16,2.4424424424424425,-0.4832380031070327,80,90.72077350361086
16,2.4524524524524525,-0.4079912961056491,80,90.72077350361086
16,2.4624624624624625,-0.3289818833154571,80,90.72077350361086
16,2.4724724724724725,-0.2438756841606115,80,90.72077350361086
16,2.4824824824824825,-0.1607849077558846,80,90.72077350361086
16,2.4924924924924925,-0.0735646520629308,80,90.72077350361086
16,2.5025025025025025,0.0273244879803033,80,90.72077350361086
16,2.5125125125125125,0.1083329088164401,80,90.72077350361086
16,2.5225225225225225,0.2026389797529577,80,90.72077350361086
16,2.5325325325325325,0.2827022760113782,80,90.72077350361086
16,2.5425425425425425,0.3614771456660712,80,90.72077350361086
16,2.5525525525525525,0.4447069486857485,80,90.72077350361086
16,2.5625625625625625,0.5077430538380838,80,90.72077350361086
16,2.5725725725725725,0.5827099311480232,80,90.72077350361086
16,2.5825825825825826,0.6435307918006544,80,90.72077350361086
16,2.592592592592593,0.6805771322341754,80,90.72077350361086
16,2.6026026026026026,0.7295671349490473,80,90.72077350361086
16,2.612612612612613,0.7478443309511603,80,90.72077350361086
16,2.6226226226226226,0.7606569270386357,80,90.72077350361086
16,2.6326326326326326,0.7817836218811105,80,90.72077350361086
16,2.6426426426426426,0.7771210738330904,80,90.72077350361086
16,2.6526526526526526,0.7745550647102193,80,90.72077350361086
16,2.6626626626626626,0.7499518483745025,80,90.72077350361086
16,2.6726726726726726,0.7297657370638176,80,90.72077350361086
16,2.6826826826826826,0.7021166735635676,80,90.72077350361086
16,2.6926926926926926,0.6581983640339485,80,90.72077350361086
16,2.702702702702702,0.617512182965202,80,90.72077350361086
16,2.7127127127127126,0.5757493097491333,80,90.72077350361086
16,2.722722722722722,0.537307883759379,80,90.72077350361086
16,2.7327327327327327,0.4808146828078273,80,90.72077350361086
16,2.7427427427427427,0.4345630145762918,80,90.72077350361086
16,2.7527527527527527,0.3850216591327091,80,90.72077350361086
16,2.7627627627627627,0.3274521620747602,80,90.72077350361086
16,2.7727727727727727,0.2798344362683854,80,90.72077350361086
16,2.7827827827827827,0.2383034894717219,80,90.72077350361086
16,2.7927927927927927,0.19429290246592,80,90.72077350361086
16,2.8028028028028027,0.1484810456468317,80,90.72077350361086
16,2.8128128128128127,0.1298627057477678,80,90.72077350361086
16,2.8228228228228227,0.0849273297351434,80,90.72077350361086
16,2.8328328328328327,0.0680317202669522,80,90.72077350361086
16,2.8428428428428427,0.054985154658634,80,90.72077350361086
16,2.8528528528528527,0.034149863448896,80,90.72077350361086
16,2.8628628628628627,0.0140331778068185,80,90.72077350361086
16,2.8728728728728727,0.0058786157739621,80,90.72077350361086
16,2.8828828828828827,-0.0058322435290818,80,90.72077350361086
16,2.8928928928928928,0.0027800488018181,80,90.72077350361086
16,2.9029029029029028,-0.0001283141848139,80,90.72077350361086
16,2.9129129129129128,-0.000344155513989,80,90.72077350361086
16,2.9229229229229228,0.0088541616447668,80,90.72077350361086
16,2.932932932932933,-0.0069162147576026,80,90.72077350361086
16,2.942942942942943,-0.0016900973239929,80,90.72077350361086
16,2.952952952952953,-0.007249256383847,80,90.72077350361086
16,2.962962962962963,-0.0137481861936668,80,90.72077350361086
16,2.972972972972973,-0.021232865946366,80,90.72077350361086
16,2.982982982982983,-0.0406189564368733,80,90.72077350361086
16,2.992992992992993,-0.0507744466354047,80,90.72077350361086
16,3.003003003003003,-0.0714617173111351,80,90.72077350361086
16,3.013013013013013,-0.1058052342428497,80,90.72077350361086
16,3.023023023023023,-0.1320330929026901,80,90.72077350361086
16,3.033033033033033,-0.1643735889294271,80,90.72077350361086
16,3.043043043043043,-0.2133131936744291,80,90.72077350361086
16,3.053053053053053,-0.2444467547650842,80,90.72077350361086
16,3.063063063063063,-0.2950729618024008,80,90.72077350361086
16,3.073073073073073,-0.3467494470696206,80,90.72077350361086
16,3.083083083083083,-0.3938366984007997,80,90.72077350361086
16,3.093093093093093,-0.4484916589287646,80,90.72077350361086
16,3.103103103103103,-0.4915509597845827,80,90.72077350361086
16,3.113113113113113,-0.5474688727252436,80,90.72077350361086
16,3.123123123123123,-0.5931866010377268,80,90.72077350361086
16,3.133133133133133,-0.625048643633234,80,90.72077350361086
16,3.143143143143143,-0.6753506708789104,80,90.72077350361086
16,3.153153153153153,-0.7037520298482717,80,90.72077350361086
16,3.163163163163163,-0.731621402528367,80,90.72077350361086
16,3.173173173173173,-0.7647460183410607,80,90.72077350361086
16,3.183183183183183,-0.7684954415372074,80,90.72077350361086
16,3.193193193193193,-0.780420629518834,80,90.72077350361086
16,3.203203203203203,-0.7744968801789913,80,90.72077350361086
16,3.2132132132132134,-0.7607161818212158,80,90.72077350361086
16,3.2232232232232234,-0.7399052959672516,80,90.72077350361086
16,3.2332332332332334,-0.7182614275449618,80,90.72077350361086
16,3.2432432432432434,-0.6759058286881573,80,90.72077350361086
16,3.253253253253253,-0.6172428831486121,80,90.72077350361086
16,3.2632632632632634,-0.5718979394279509,80,90.72077350361086
16,3.273273273273273,-0.5048900527880965,80,90.72077350361086
16,3.2832832832832834,-0.4225016250601706,80,90.72077350361086
16,3.293293293293293,-0.3582447229159534,80,90.72077350361086
16,3.3033033033033035,-0.2693576529516749,80,90.72077350361086
16,3.313313313313313,-0.1795567217774718,80,90.72077350361086
16,3.3233233233233235,-0.0893020591513074,80,90.72077350361086
16,3.333333333333333,-0.0030471980219773,80,90.72077350361086
16,3.3433433433433435,0.0853716563266917,80,90.72077350361086
16,3.353353353353353,0.181102443757028,80,90.72077350361086
16,3.3633633633633635,0.2720057279220221,80,90.72077350361086
16,3.373373373373373,0.3446369866677878,80,90.72077350361086
16,3.3833833833833835,0.419608373222864,80,90.72077350361086
16,3.393393393393393,0.5103203985150163,80,90.72077350361086
16,3.4034034034034035,0.5663611278854879,80,90.72077350361086
16,3.413413413413413,0.6186757747941098,80,90.72077350361086
16,3.4234234234234235,0.6752663062960652,80,90.72077350361086
16,3.433433433433433,0.708900455842257,80,90.72077350361086
16,3.443443443443444,0.7385679412191085,80,90.72077350361086
16,3.4534534534534536,0.7703067377079897,80,90.72077350361086
16,3.463463463463464,0.7775246717594657,80,90.72077350361086
16,3.4734734734734736,0.7708544890305759,80,90.72077350361086
16,3.483483483483484,0.7676623738052891,80,90.72077350361086
16,3.4934934934934936,0.7580455890227983,80,90.72077350361086
16,3.503503503503504,0.7304694382932351,80,90.72077350361086
16,3.5135135135135136,0.719193981104749,80,90.72077350361086
16,3.523523523523524,0.6853180646470632,80,90.72077350361086
16,3.5335335335335336,0.6287464149978422,80,90.72077350361086
16,3.543543543543544,0.6003163962319382,80,90.72077350361086
16,3.5535535535535536,0.5407652662845954,80,90.72077350361086
16,3.563563563563564,0.4888001994977262,80,90.72077350361086
16,3.5735735735735736,0.4432898558858516,80,90.72077350361086
16,3.583583583583584,0.3919753798410106,80,90.72077350361086
16,3.5935935935935936,0.3408552940875561,80,90.72077350361086
16,3.603603603603604,0.2978610894023755,80,90.72077350361086
16,3.6136136136136137,0.2424795555404565,80,90.72077350361086
16,3.623623623623624,0.2094643380177711,80,90.72077350361086
16,3.6336336336336337,0.1682855049715322,80,90.72077350361086
16,3.643643643643644,0.1271614153619844,80,90.72077350361086
16,3.6536536536536537,0.0968965928380189,80,90.72077350361086
16,3.663663663663664,0.0728880598575415,80,90.72077350361086
16,3.6736736736736737,0.0511933338913956,80,90.72077350361086
16,3.683683683683684,0.0312699897938265,80,90.72077350361086
16,3.6936936936936937,0.0219452384640433,80,90.72077350361086
16,3.703703703703704,0.0223655866870385,80,90.72077350361086
16,3.7137137137137137,0.0065161426948582,80,90.72077350361086
16,3.723723723723724,-0.0078731948939639,80,90.72077350361086
16,3.7337337337337337,-0.0019223309406636,80,90.72077350361086
16,3.743743743743744,-0.0054970279771299,80,90.72077350361086
16,3.7537537537537538,0.0011411861030849,80,90.72077350361086
16,3.763763763763764,0.0029815349062872,80,90.72077350361086
16,3.7737737737737738,-0.00845599169737,80,90.72077350361086
16,3.783783783783784,-0.0012496509403292,80,90.72077350361086
16,3.793793793793794,-0.0088635464275774,80,90.72077350361086
16,3.803803803803804,-0.0252224880267081,80,90.72077350361086
16,3.813813813813814,-0.0324065507376054,80,90.72077350361086
16,3.823823823823824,-0.0567968366829023,80,90.72077350361086
16,3.833833833833834,-0.0630231825677508,80,90.72077350361086
16,3.843843843843844,-0.0912125951040462,80,90.72077350361086
16,3.853853853853854,-0.1290262134609645,80,90.72077350361086
16,3.863863863863864,-0.1454045964478175,80,90.72077350361086
16,3.873873873873874,-0.1903161865612613,80,90.72077350361086
16,3.883883883883884,-0.2420813235952371,80,90.72077350361086
16,3.893893893893894,-0.2813285334809685,80,90.72077350361086
16,3.903903903903904,-0.3339868979963672,80,90.72077350361086
16,3.913913913913914,-0.3796609230892928,80,90.72077350361086
16,3.923923923923924,-0.4342423837760822,80,90.72077350361086
16,3.933933933933934,-0.4843395907947026,80,90.72077350361086
16,3.943943943943944,-0.5283294347187858,80,90.72077350361086
16,3.953953953953954,-0.5773711888301929,80,90.72077350361086
16,3.963963963963964,-0.6126696605483616,80,90.72077350361086
16,3.973973973973974,-0.6707796359895376,80,90.72077350361086
16,3.983983983983984,-0.6963848813181315,80,90.72077350361086
16,3.993993993993994,-0.724313545968946,80,90.72077350361086
16,4.004004004004004,-0.7598511580647743,80,90.72077350361086
16,4.014014014014014,-0.7683136082061411,80,90.72077350361086
16,4.024024024024024,-0.7780274833109762,80,90.72077350361086
16,4.034034034034034,-0.7671976465758082,80,90.72077350361086
16,4.044044044044044,-0.7656890531536947,80,90.72077350361086
16,4.054054054054054,-0.7551878998042538,80,90.72077350361086
16,4.064064064064064,-0.7194673653859348,80,90.72077350361086
16,4.074074074074074,-0.6827291197680743,80,90.72077350361086
16,4.084084084084084,-0.6329288012184411,80,90.72077350361086
16,4.094094094094094,-0.5871407121885774,80,90.72077350361086
16,4.104104104104104,-0.5219588141571231,80,90.72077350361086
16,4.114114114114114,-0.4490282025708341,80,90.72077350361086
16,4.124124124124124,-0.3713693024218319,80,90.72077350361086
16,4.134134134134134,-0.2879425426506822,80,90.72077350361086
16,4.144144144144144,-0.2036469128865292,80,90.72077350361086
16,4.1541541541541545,-0.1047609358962339,80,90.72077350361086
16,4.1641641641641645,-0.0160964872419123,80,90.72077350361086
16,4.174174174174175,0.065180248925331,80,90.72077350361086
16,4.1841841841841845,0.1518966060774871,80,90.72077350361086
16,4.1941941941941945,0.2462230819418065,80,90.72077350361086
16,4.2042042042042045,0.3228915883571284,80,90.72077350361086
16,4.214214214214215,0.4030407956669394,80,90.72077350361086
16,4.2242242242242245,0.4793618776152989,80,90.72077350361086
16,4.2342342342342345,0.5445432139549653,80,90.72077350361086
16,4.2442442442442445,0.6127699174610064,80,90.72077350361086
16,4.254254254254255,0.6493599915888485,80,90.72077350361086
16,4.2642642642642645,0.7017130081502467,80,90.72077350361086
16,4.2742742742742745,0.730507471632212,80,90.72077350361086
16,4.2842842842842845,0.7627766803349507,80,90.72077350361086
16,4.294294294294295,0.7692574771128706,80,90.72077350361086
16,4.3043043043043046,0.7814706115819489,80,90.72077350361086
16,4.314314314314315,0.7746404824917485,80,90.72077350361086
16,4.324324324324325,0.7623917198577201,80,90.72077350361086
16,4.334334334334335,0.7523081197721856,80,90.72077350361086
16,4.344344344344345,0.7242769516234022,80,90.72077350361086
16,4.354354354354355,0.6884038768054682,80,90.72077350361086
16,4.364364364364365,0.6440357024035516,80,90.72077350361086
16,4.374374374374375,0.5963670940774686,80,90.72077350361086
16,4.384384384384385,0.5534232087953904,80,90.72077350361086
16,4.394394394394395,0.5083545186616226,80,90.72077350361086
16,4.404404404404405,0.4624069127631097,80,90.72077350361086
16,4.414414414414415,0.3988050366343372,80,90.72077350361086
16,4.424424424424425,0.3528009817404509,80,90.72077350361086
16,4.434434434434435,0.3062716197228233,80,90.72077350361086
16,4.444444444444445,0.2579926955902157,80,90.72077350361086
16,4.454454454454455,0.2240985672136579,80,90.72077350361086
16,4.464464464464465,0.1746090435160172,80,90.72077350361086
16,4.474474474474475,0.1379997620576306,80,90.72077350361086
16,4.484484484484485,0.1096453365805024,80,90.72077350361086
16,4.494494494494495,0.0831562102589769,80,90.72077350361086
16,4.504504504504505,0.0638052940648896,80,90.72077350361086
16,4.514514514514515,0.0288525583124915,80,90.72077350361086
16,4.524524524524525,0.0252747821541525,80,90.72077350361086
16,4.534534534534535,0.016048075110478,80,90.72077350361086
16,4.544544544544545,0.0074720895983721,80,90.72077350361086
16,4.554554554554555,0.0016601252603286,80,90.72077350361086
16,4.564564564564565,0.0092169525308547,80,90.72077350361086
16,4.574574574574575,-0.0041649028484422,80,90.72077350361086
16,4.584584584584585,9.174328780283638e-05,80,90.72077350361086
16,4.594594594594595,-0.0021362987315236,80,90.72077350361086
16,4.604604604604605,0.0049282838865642,80,90.72077350361086
16,4.614614614614615,0.00033418613607,80,90.72077350361086
16,4.624624624624625,-0.0120172668552463,80,90.72077350361086
16,4.634634634634635,-0.0159161190798038,80,90.72077350361086
16,4.644644644644645,-0.0329380339045572,80,90.72077350361086
16,4.654654654654655,-0.0472519850656691,80,90.72077350361086
16,4.664664664664665,-0.0677277517401917,80,90.72077350361086
16,4.674674674674675,-0.0928763647654339,80,90.72077350361086
16,4.684684684684685,-0.1290331138880694,80,90.72077350361086
16,4.694694694694695,-0.155027486171382,80,90.72077350361086
16,4.704704704704705,-0.1906899376183549,80,90.72077350361086
16,4.714714714714715,-0.2287053096221071,80,90.72077350361086
16,4.724724724724725,-0.2621627671836029,80,90.72077350361086
16,4.734734734734735,-0.3158526462287129,80,90.72077350361086
16,4.744744744744745,-0.373491676882,80,90.72077350361086
16,4.754754754754755,-0.4142396977769426,80,90.72077350361086
16,4.764764764764765,-0.4719330661293222,80,90.72077350361086
16,4.774774774774775,-0.5099980972886491,80,90.72077350361086
16,4.784784784784785,-0.5719906749164875,80,90.72077350361086
16,4.794794794794795,-0.6141379628564357,80,90.72077350361086
16,4.804804804804805,-0.6577359236645783,80,90.72077350361086
16,4.814814814814815,-0.6882763430960657,80,90.72077350361086
16,4.824824824824825,-0.7245796496252411,80,90.72077350361086
16,4.834834834834835,-0.7575399358317297,80,90.72077350361086
16,4.844844844844845,-0.7619779648535402,80,90.72077350361086
16,4.854854854854855,-0.7810976530383913,80,90.72077350361086
16,4.864864864864865,-0.7745280637703641,80,90.72077350361086
16,4.874874874874875,-0.7696745731361905,80,90.72077350361086
16,4.884884884884885,-0.7638013625846369,80,90.72077350361086
16,4.894894894894895,-0.7208198782875817,80,90.72077350361086
16,4.904904904904905,-0.6846188592886812,80,90.72077350361086
16,4.914914914914915,-0.6385907273890874,80,90.72077350361086
16,4.924924924924925,-0.5963436207533155,80,90.72077350361086
16,4.934934934934935,-0.5314321439164973,80,90.72077350361086
16,4.944944944944945,-0.465234959196171,80,90.72077350361086
16,4.954954954954955,-0.3892107405189303,80,90.72077350361086
16,4.964964964964965,-0.3120966512610307,80,90.72077350361086
16,4.974974974974975,-0.2257670190389465,80,90.72077350361086
16,4.984984984984985,-0.136998500633973,80,90.72077350361086
16,4.994994994994995,-0.0417602627590886,80,90.72077350361086
16,5.005005005005005,0.0444805024911099,80,90.72077350361086
16,5.015015015015015,0.1329499889672429,80,90.72077350361086
16,5.025025025025025,0.2259487553499895,80,90.72077350361086
16,5.035035035035035,0.3069321057345239,80,90.72077350361086
16,5.045045045045045,0.3943615813411895,80,90.72077350361086
16,5.055055055055055,0.4693242790635039,80,90.72077350361086
16,5.065065065065065,0.5324180281973355,80,90.72077350361086
16,5.075075075075075,0.5903520509461875,80,90.72077350361086
16,5.085085085085085,0.6455742129577915,80,90.72077350361086
16,5.095095095095095,0.6869245509602281,80,90.72077350361086
16,5.105105105105105,0.7332459114359667,80,90.72077350361086
16,5.115115115115115,0.7550054868737748,80,90.72077350361086
16,5.125125125125125,0.7708341125654289,80,90.72077350361086
16,5.135135135135135,0.7740507926445441,80,90.72077350361086
16,5.145145145145145,0.7745082997640856,80,90.72077350361086
16,5.155155155155155,0.7670456317157285,80,90.72077350361086
16,5.165165165165165,0.7447597374804664,80,90.72077350361086
16,5.175175175175175,0.718403948216846,80,90.72077350361086
16,5.185185185185185,0.6879673730124545,80,90.72077350361086
16,5.195195195195195,0.6587796849950606,80,90.72077350361086
16,5.205205205205205,0.6098456494111874,80,90.72077350361086
16,5.215215215215215,0.5691920994173756,80,90.72077350361086
16,5.225225225225225,0.5255341809859924,80,90.72077350361086
16,5.235235235235235,0.4692826972454823,80,90.72077350361086
16,5.245245245245245,0.4205266710097571,80,90.72077350361086
16,5.255255255255255,0.3769456239245165,80,90.72077350361086
16,5.265265265265265,0.3205692193027968,80,90.72077350361086
16,5.275275275275275,0.2698164765522637,80,90.72077350361086
16,5.285285285285285,0.2250979167400821,80,90.72077350361086
16,5.295295295295295,0.1872865016439575,80,90.72077350361086
16,5.305305305305305,0.1427812139730583,80,90.72077350361086
16,5.315315315315315,0.117715604213538,80,90.72077350361086
16,5.325325325325325,0.0926934377682576,80,90.72077350361086
16,5.335335335335335,0.0644519250656431,80,90.72077350361086
16,5.345345345345345,0.0422698892885939,80,90.72077350361086
16,5.355355355355355,0.0431059947480627,80,90.72077350361086
16,5.365365365365365,0.0267275280334538,80,90.72077350361086
16,5.375375375375375,0.010612389163368,80,90.72077350361086
16,5.385385385385385,-0.0002140233167855,80,90.72077350361086
16,5.395395395395395,-0.0044949582106596,80,90.72077350361086
16,5.405405405405405,-0.0003217056608319,80,90.72077350361086
16,5.415415415415415,0.0014018537205396,80,90.72077350361086
16,5.425425425425425,-0.0033087689107756,80,90.72077350361086
16,5.435435435435435,-0.0004948136250441,80,90.72077350361086
16,5.445445445445445,0.0038127116759622,80,90.72077350361086
16,5.455455455455455,-0.0068594150828047,80,90.72077350361086
16,5.465465465465465,-0.0164736404985524,80,90.72077350361086
16,5.475475475475475,-0.0231648212412502,80,90.72077350361086
16,5.485485485485485,-0.0422400836380292,80,90.72077350361086
16,5.495495495495495,-0.0517086153766184,80,90.72077350361086
16,5.505505505505505,-0.0749856991662499,80,90.72077350361086
16,5.515515515515515,-0.1026012314997701,80,90.72077350361086
16,5.525525525525525,-0.1369510119197521,80,90.72077350361086
16,5.535535535535535,-0.1755033976760923,80,90.72077350361086
16,5.545545545545545,-0.214996382861658,80,90.72077350361086
16,5.555555555555555,-0.2508889574292757,80,90.72077350361086
16,5.565565565565565,-0.3061932488707741,80,90.72077350361086
16,5.575575575575575,-0.3562575014601722,80,90.72077350361086
16,5.585585585585585,-0.3999274170068844,80,90.72077350361086
16,5.595595595595595,-0.4629016281368188,80,90.72077350361086
16,5.605605605605605,-0.5040006295596127,80,90.72077350361086
16,5.615615615615615,-0.5566923474334012,80,90.72077350361086
16,5.625625625625625,-0.6052998631735913,80,90.72077350361086
16,5.635635635635635,-0.6495038683089981,80,90.72077350361086
16,5.645645645645645,-0.6938620630590664,80,90.72077350361086
16,5.655655655655655,-0.7178003318270201,80,90.72077350361086
16,5.665665665665665,-0.7426774068170028,80,90.72077350361086
16,5.675675675675675,-0.764197556752074,80,90.72077350361086
16,5.685685685685685,-0.7745717352312298,80,90.72077350361086
16,5.695695695695696,-0.7721867355204503,80,90.72077350361086
16,5.7057057057057055,-0.7677504923832401,80,90.72077350361086
16,5.715715715715716,-0.7612547715142761,80,90.72077350361086
16,5.7257257257257255,-0.7383327537905208,80,90.72077350361086
16,5.735735735735736,-0.7108259584482056,80,90.72077350361086
16,5.7457457457457455,-0.6607144269399644,80,90.72077350361086
16,5.755755755755756,-0.609367301385982,80,90.72077350361086
16,5.7657657657657655,-0.5524507121568387,80,90.72077350361086
16,5.775775775775776,-0.4791549347468737,80,90.72077350361086
16,5.7857857857857855,-0.4019526095981824,80,90.72077350361086
16,5.795795795795796,-0.3349946540352215,80,90.72077350361086
16,5.8058058058058055,-0.2402005648770446,80,90.72077350361086
16,5.815815815815816,-0.1550226343471321,80,90.72077350361086
16,5.8258258258258255,-0.0730095371261384,80,90.72077350361086
16,5.835835835835836,0.0232914340804012,80,90.72077350361086
16,5.8458458458458455,0.1077128056567166,80,90.72077350361086
16,5.855855855855856,0.2026659923651727,80,90.72077350361086
16,5.865865865865866,0.2959736302139015,80,90.72077350361086
16,5.875875875875876,0.3783168535339465,80,90.72077350361086
16,5.885885885885886,0.4478387013973774,80,90.72077350361086
16,5.895895895895896,0.5127267228860118,80,90.72077350361086
16,5.905905905905906,0.5714023840159811,80,90.72077350361086
16,5.915915915915916,0.6301129547166041,80,90.72077350361086
16,5.925925925925926,0.6738548804482984,80,90.72077350361086
16,5.935935935935936,0.7231139467880244,80,90.72077350361086
16,5.945945945945946,0.7492855112528578,80,90.72077350361086
16,5.955955955955956,0.7731310358744786,80,90.72077350361086
16,5.965965965965966,0.7869128858369463,80,90.72077350361086
16,5.975975975975976,0.786114095086137,80,90.72077350361086
16,5.985985985985986,0.7694836815469627,80,90.72077350361086
16,5.995995995995996,0.7499552704877351,80,90.72077350361086
16,6.006006006006006,0.728284292458304,80,90.72077350361086
16,6.016016016016016,0.7095211336379001,80,90.72077350361086
16,6.026026026026026,0.6717522027083176,80,90.72077350361086
16,6.036036036036036,0.622323216036486,80,90.72077350361086
16,6.046046046046046,0.5832062498998213,80,90.72077350361086
16,6.056056056056056,0.5398321743227458,80,90.72077350361086
16,6.066066066066066,0.4794509833945867,80,90.72077350361086
16,6.076076076076076,0.4322974041728964,80,90.72077350361086
16,6.086086086086086,0.372046183314099,80,90.72077350361086
16,6.096096096096096,0.3278193970227027,80,90.72077350361086
16,6.106106106106106,0.2788240412988276,80,90.72077350361086
16,6.116116116116116,0.2385639476473989,80,90.72077350361086
16,6.126126126126126,0.1987426148498225,80,90.72077350361086
16,6.136136136136136,0.1571773539929322,80,90.72077350361086
16,6.146146146146146,0.1257857893331275,80,90.72077350361086
16,6.156156156156156,0.0961699395392633,80,90.72077350361086
16,6.166166166166166,0.0648601148820621,80,90.72077350361086
16,6.176176176176176,0.0420210939195781,80,90.72077350361086
16,6.186186186186186,0.0261040264900726,80,90.72077350361086
16,6.196196196196196,0.0178785970759879,80,90.72077350361086
16,6.206206206206206,0.0105643863910005,80,90.72077350361086
16,6.216216216216216,0.0073533098451802,80,90.72077350361086
16,6.226226226226226,-0.0010058623516638,80,90.72077350361086
16,6.236236236236236,0.0006776727578947,80,90.72077350361086
16,6.246246246246246,-0.0034233972761031,80,90.72077350361086
16,6.256256256256256,0.0012131161425364,80,90.72077350361086
16,6.266266266266266,0.0108885710927179,80,90.72077350361086
16,6.276276276276276,0.0005648631602839,80,90.72077350361086
16,6.286286286286286,-0.0074092897052029,80,90.72077350361086
16,6.296296296296296,-0.0117967236095264,80,90.72077350361086
16,6.306306306306306,-0.0139246617846847,80,90.72077350361086
16,6.316316316316316,-0.022343581418193,80,90.72077350361086
16,6.326326326326326,-0.0455794106218092,80,90.72077350361086
16,6.336336336336336,-0.0673057840619262,80,90.72077350361086
16,6.346346346346346,-0.1010973595250053,80,90.72077350361086
16,6.356356356356356,-0.1362756657219683,80,90.72077350361086
16,6.366366366366366,-0.1561714463969352,80,90.72077350361086
16,6.376376376376376,-0.2020455772754244,80,90.72077350361086
16,6.386386386386386,-0.2494582541230872,80,90.72077350361086
16,6.396396396396396,-0.2857506889354078,80,90.72077350361086
16,6.406406406406406,-0.3467474552433588,80,90.72077350361086
16,6.416416416416417,-0.392965699215518,80,90.72077350361086
16,6.426426426426427,-0.4366045849087642,80,90.72077350361086
16,6.436436436436437,-0.5039891857551027,80,90.72077350361086
16,6.446446446446447,-0.5501514718430133,80,90.72077350361086
16,6.456456456456457,-0.5931696997020119,80,90.72077350361086
16,6.466466466466467,-0.6259850457029916,80,90.72077350361086
16,6.476476476476477,-0.6729830851738261,80,90.72077350361086
16,6.486486486486487,-0.7181069350155291,80,90.72077350361086
16,6.496496496496497,-0.7381600155453293,80,90.72077350361086
16,6.506506506506507,-0.772370201564156,80,90.72077350361086
16,6.516516516516517,-0.7619688850850879,80,90.72077350361086
16,6.526526526526527,-0.7816212245391616,80,90.72077350361086
16,6.536536536536537,-0.7779934791887717,80,90.72077350361086
16,6.546546546546547,-0.7648881383935082,80,90.72077350361086
16,6.556556556556557,-0.7429287963594388,80,90.72077350361086
16,6.566566566566567,-0.7069967560441596,80,90.72077350361086
16,6.576576576576577,-0.6634612260471592,80,90.72077350361086
16,6.586586586586587,-0.6248926107616949,80,90.72077350361086
16,6.596596596596597,-0.5755355745985294,80,90.72077350361086
16,6.606606606606607,-0.497356539290872,80,90.72077350361086
16,6.616616616616617,-0.4214086718957928,80,90.72077350361086
16,6.626626626626627,-0.3391356475407341,80,90.72077350361086
16,6.636636636636637,-0.2626288378705443,80,90.72077350361086
16,6.646646646646647,-0.1842359041735816,80,90.72077350361086
16,6.656656656656657,-0.0898084699817327,80,90.72077350361086
16,6.666666666666667,-0.0093605777218847,80,90.72077350361086
16,6.676676676676677,0.088200345529922,80,90.72077350361086
16,6.686686686686687,0.1864361227533663,80,90.72077350361086
16,6.696696696696697,0.2572370533801298,80,90.72077350361086
16,6.706706706706707,0.3495791629075289,80,90.72077350361086
16,6.716716716716717,0.4244066405138095,80,90.72077350361086
16,6.726726726726727,0.4922979516067405,80,90.72077350361086
16,6.736736736736737,0.5724964313103384,80,90.72077350361086
16,6.746746746746747,0.6266422593481592,80,90.72077350361086
16,6.756756756756757,0.6693263192448724,80,90.72077350361086
16,6.766766766766767,0.7061923705409422,80,90.72077350361086
16,6.776776776776777,0.7299902969598409,80,90.72077350361086
16,6.786786786786787,0.7610753132943049,80,90.72077350361086
16,6.796796796796797,0.7711756272672987,80,90.72077350361086
16,6.806806806806807,0.7786101621746079,80,90.72077350361086
16,6.816816816816817,0.7740248750118381,80,90.72077350361086
16,6.826826826826827,0.7640661262540325,80,90.72077350361086
16,6.836836836836837,0.7379795771845042,80,90.72077350361086
16,6.846846846846847,0.71409219560514,80,90.72077350361086
16,6.856856856856857,0.6710299371304084,80,90.72077350361086
16,6.866866866866867,0.6256171640500048,80,90.72077350361086
16,6.876876876876877,0.5853680747915856,80,90.72077350361086
16,6.886886886886887,0.5412962948843671,80,90.72077350361086
16,6.896896896896897,0.4988806167120074,80,90.72077350361086
16,6.906906906906907,0.4413339279438051,80,90.72077350361086
16,6.916916916916917,0.3983723944851203,80,90.72077350361086
16,6.926926926926927,0.3453822013062446,80,90.72077350361086
16,6.936936936936937,0.2948506227466954,80,90.72077350361086
16,6.946946946946947,0.2530813072181063,80,90.72077350361086
16,6.956956956956957,0.2040166750506611,80,90.72077350361086
16,6.966966966966967,0.1804265050072107,80,90.72077350361086
16,6.976976976976977,0.1338494619586024,80,90.72077350361086
16,6.986986986986987,0.0963432419718665,80,90.72077350361086
16,6.996996996996997,0.0647548927990918,80,90.72077350361086
16,7.007007007007007,0.0503011109434157,80,90.72077350361086
16,7.017017017017017,0.0320831539066832,80,90.72077350361086
16,7.027027027027027,0.0210370053128135,80,90.72077350361086
16,7.037037037037037,0.0167232804743912,80,90.72077350361086
16,7.047047047047047,0.0040210968072103,80,90.72077350361086
16,7.057057057057057,0.0022005350755051,80,90.72077350361086
16,7.067067067067067,0.0066772616134489,80,90.72077350361086
16,7.077077077077077,-0.0089869690367982,80,90.72077350361086
16,7.087087087087087,-0.0010584242853339,80,90.72077350361086
16,7.097097097097097,0.0016651956264532,80,90.72077350361086
16,7.107107107107107,0.0033341129646357,80,90.72077350361086
16,7.117117117117117,-0.0024244307532726,80,90.72077350361086
16,7.127127127127127,-0.0152544097903374,80,90.72077350361086
16,7.137137137137137,-0.019136584388751,80,90.72077350361086
16,7.147147147147147,-0.0309347704801443,80,90.72077350361086
16,7.157157157157157,-0.0493895711301313,80,90.72077350361086
16,7.167167167167167,-0.0571583869660607,80,90.72077350361086
16,7.177177177177177,-0.0949899276236194,80,90.72077350361086
16,7.187187187187187,-0.1286380350648525,80,90.72077350361086
16,7.197197197197197,-0.1573218163731789,80,90.72077350361086
16,7.207207207207207,-0.1898686602834546,80,90.72077350361086
16,7.217217217217217,-0.2396731549233739,80,90.72077350361086
16,7.227227227227227,-0.2821417891677891,80,90.72077350361086
16,7.237237237237237,-0.3270382609862335,80,90.72077350361086
16,7.247247247247247,-0.3819304846958639,80,90.72077350361086
16,7.257257257257257,-0.4372177731610376,80,90.72077350361086
16,7.267267267267267,-0.4875289579148863,80,90.72077350361086
16,7.277277277277277,-0.5353935241107365,80,90.72077350361086
16,7.287287287287287,-0.579320025806155,80,90.72077350361086
16,7.297297297297297,-0.6335153212093478,80,90.72077350361086
16,7.307307307307307,-0.6646507972879566,80,90.72077350361086
16,7.317317317317317,-0.6997691938429993,80,90.72077350361086
16,7.327327327327327,-0.7316178226786464,80,90.72077350361086
16,7.337337337337337,-0.75595770094985,80,90.72077350361086
16,7.347347347347347,-0.7675414753692841,80,90.72077350361086
16,7.357357357357357,-0.7821757760055993,80,90.72077350361086
16,7.367367367367367,-0.7770320325147272,80,90.72077350361086
16,7.377377377377377,-0.7688674991986969,80,90.72077350361086
16,7.387387387387387,-0.7441203668128544,80,90.72077350361086
16,7.397397397397397,-0.7196782056155498,80,90.72077350361086
16,7.407407407407407,-0.6769735545148262,80,90.72077350361086
16,7.4174174174174174,-0.6341555457080615,80,90.72077350361086
16,7.4274274274274275,-0.5722178877694856,80,90.72077350361086
16,7.437437437437437,-0.5075761288534401,80,90.72077350361086
16,7.447447447447447,-0.4529817046394565,80,90.72077350361086
16,7.4574574574574575,-0.3673211005053817,80,90.72077350361086
16,7.4674674674674675,-0.2923275876556399,80,90.72077350361086
16,7.477477477477477,-0.1957326676718438,80,90.72077350361086
16,7.487487487487487,-0.1189195378492357,80,90.72077350361086
16,7.4974974974974975,-0.0214467723494173,80,90.72077350361086
16,7.5075075075075075,0.0619479212260443,80,90.72077350361086
16,7.517517517517517,0.1562015664363122,80,90.72077350361086
16,7.527527527527527,0.249389925647075,80,90.72077350361086
16,7.5375375375375375,0.3282130504500694,80,90.72077350361086
16,7.5475475475475475,0.4074802521295891,80,90.72077350361086
16,7.557557557557557,0.4814283680297344,80,90.72077350361086
16,7.567567567567567,0.5467715610167939,80,90.72077350361086
16,7.5775775775775776,0.6020212300303726,80,90.72077350361086
16,7.587587587587588,0.6548536803636695,80,90.72077350361086
16,7.597597597597598,0.7014848164462141,80,90.72077350361086
16,7.607607607607608,0.7257008685823664,80,90.72077350361086
16,7.617617617617618,0.7557776154311369,80,90.72077350361086
16,7.627627627627628,0.7727860426363604,80,90.72077350361086
16,7.637637637637638,0.7807152582377688,80,90.72077350361086
16,7.647647647647648,0.780960584880304,80,90.72077350361086
16,7.657657657657658,0.7673129850808298,80,90.72077350361086
16,7.667667667667668,0.7408056947265477,80,90.72077350361086
16,7.677677677677678,0.7234551450275282,80,90.72077350361086
16,7.687687687687688,0.6802948032906493,80,90.72077350361086
16,7.697697697697698,0.6443967165889538,80,90.72077350361086
16,7.707707707707708,0.6062257466781783,80,90.72077350361086
16,7.717717717717718,0.5588729377873456,80,90.72077350361086
16,7.727727727727728,0.5106312420913374,80,90.72077350361086
16,7.737737737737738,0.4565382641140951,80,90.72077350361086
16,7.747747747747748,0.4081760205198066,80,90.72077350361086
16,7.757757757757758,0.3519336021046058,80,90.72077350361086
16,7.767767767767768,0.305293363797235,80,90.72077350361086
16,7.777777777777778,0.2535641705224438,80,90.72077350361086
16,7.787787787787788,0.225035117319852,80,90.72077350361086
16,7.797797797797798,0.1694506249147193,80,90.72077350361086
16,7.807807807807808,0.1389632583984381,80,90.72077350361086
16,7.817817817817818,0.1137014840370722,80,90.72077350361086
16,7.827827827827828,0.08349577016753,80,90.72077350361086
16,7.837837837837838,0.0601614044054409,80,90.72077350361086
16,7.847847847847848,0.0445261696891483,80,90.72077350361086
16,7.857857857857858,0.0213147461915239,80,90.72077350361086
16,7.867867867867868,0.0151584513384912,80,90.72077350361086
16,7.877877877877878,0.0018573662841054,80,90.72077350361086
16,7.887887887887888,0.0009274033634526,80,90.72077350361086
16,7.897897897897898,-0.0030292176993662,80,90.72077350361086
16,7.907907907907908,-0.0014864324982026,80,90.72077350361086
16,7.917917917917918,0.0106792782863294,80,90.72077350361086
16,7.927927927927928,-0.0080082332230661,80,90.72077350361086
16,7.937937937937938,-0.0117590960504084,80,90.72077350361086
16,7.947947947947948,-0.0152034227871294,80,90.72077350361086
16,7.957957957957958,-0.0021576708853194,80,90.72077350361086
16,7.967967967967968,-0.0161395481007573,80,90.72077350361086
16,7.977977977977978,-0.0277168305264466,80,90.72077350361086
16,7.987987987987988,-0.0418507578987016,80,90.72077350361086
16,7.997997997997998,-0.0707392609854928,80,90.72077350361086
16,8.008008008008009,-0.0905909990523627,80,90.72077350361086
16,8.018018018018019,-0.1062751488718034,80,90.72077350361086
16,8.028028028028029,-0.1500378599190912,80,90.72077350361086
16,8.038038038038039,-0.1834528417025232,80,90.72077350361086
16,8.048048048048049,-0.2269370175595993,80,90.72077350361086
16,8.058058058058059,-0.273278089316212,80,90.72077350361086
16,8.068068068068069,-0.3258984735511844,80,90.72077350361086
16,8.078078078078079,-0.3592307921248623,80,90.72077350361086
16,8.088088088088089,-0.4275975313189473,80,90.72077350361086
16,8.098098098098099,-0.4654976964476796,80,90.72077350361086
16,8.108108108108109,-0.5242218323098042,80,90.72077350361086
16,8.118118118118119,-0.5720608389733055,80,90.72077350361086
16,8.128128128128129,-0.6086291610837673,80,90.72077350361086
16,8.138138138138139,-0.6534271259548511,80,90.72077350361086
16,8.148148148148149,-0.6935209614334094,80,90.72077350361086
16,8.158158158158159,-0.7156557687598025,80,90.72077350361086
16,8.168168168168169,-0.7508641268877059,80,90.72077350361086
16,8.178178178178179,-0.7719207611050791,80,90.72077350361086
16,8.188188188188189,-0.7755228910707516,80,90.72077350361086
16,8.198198198198199,-0.7685172159976722,80,90.72077350361086
16,8.208208208208209,-0.7818591407660631,80,90.72077350361086
16,8.218218218218219,-0.7501992494638517,80,90.72077350361086
16,8.228228228228229,-0.7299835048266867,80,90.72077350361086
16,8.238238238238239,-0.6878814443172799,80,90.72077350361086
16,8.248248248248249,-0.6569203877169076,80,90.72077350361086
16,8.258258258258259,-0.5941988960130281,80,90.72077350361086
16,8.268268268268269,-0.5275480443691548,80,90.72077350361086
16,8.278278278278279,-0.463823196271074,80,90.72077350361086
16,8.288288288288289,-0.3792316987128693,80,90.72077350361086
16,8.298298298298299,-0.3132146703125187,80,90.72077350361086
16,8.308308308308309,-0.2284962997870704,80,90.72077350361086
16,8.318318318318319,-0.1360395587466171,80,90.72077350361086
16,8.328328328328329,-0.0393430748867697,80,90.72077350361086
16,8.338338338338339,0.0460844780226851,80,90.72077350361086
16,8.348348348348349,0.1343684101856705,80,90.72077350361086
16,8.358358358358359,0.2178512955449893,80,90.72077350361086
16,8.368368368368369,0.3111233238550309,80,90.72077350361086
16,8.378378378378379,0.3821542654069712,80,90.72077350361086
16,8.388388388388389,0.4644534619569567,80,90.72077350361086
16,8.398398398398399,0.5356125277234632,80,90.72077350361086
16,8.408408408408409,0.595337019197249,80,90.72077350361086
16,8.418418418418419,0.642464720334462,80,90.72077350361086
16,8.428428428428429,0.6974365034391581,80,90.72077350361086
16,8.438438438438439,0.7173946399422562,80,90.72077350361086
16,8.448448448448449,0.7514228812027962,80,90.72077350361086
16,8.458458458458459,0.7755538206621799,80,90.72077350361086
16,8.468468468468469,0.7805097470305711,80,90.72077350361086
16,8.478478478478479,0.7828884399273269,80,90.72077350361086
16,8.488488488488489,0.7658623443678214,80,90.72077350361086
16,8.498498498498499,0.7518128199773173,80,90.72077350361086
16,8.508508508508509,0.7238582122844076,80,90.72077350361086
16,8.518518518518519,0.6960505699665865,80,90.72077350361086
16,8.528528528528529,0.6521178783383852,80,90.72077350361086
16,8.538538538538539,0.6045563639291295,80,90.72077350361086
16,8.548548548548549,0.5639592430983733,80,90.72077350361086
16,8.558558558558559,0.5201014718325031,80,90.72077350361086
16,8.568568568568569,0.4697356521857105,80,90.72077350361086
16,8.578578578578579,0.4213722539489177,80,90.72077350361086
16,8.588588588588589,0.368407212414148,80,90.72077350361086
16,8.598598598598599,0.3243500083890674,80,90.72077350361086
16,8.608608608608609,0.2720566769634006,80,90.72077350361086
16,8.618618618618619,0.2256836432408914,80,90.72077350361086
16,8.62862862862863,0.1911353052766045,80,90.72077350361086
16,8.63863863863864,0.1461854299237578,80,90.72077350361086
16,8.64864864864865,0.1141688665900419,80,90.72077350361086
16,8.65865865865866,0.0867056473134804,80,90.72077350361086
16,8.66866866866867,0.0603321393962016,80,90.72077350361086
16,8.67867867867868,0.0454774652271845,80,90.72077350361086
16,8.68868868868869,0.0239292955086172,80,90.72077350361086
16,8.6986986986987,0.021072219891887,80,90.72077350361086
16,8.70870870870871,0.0073599612400658,80,90.72077350361086
16,8.71871871871872,0.0028506522585561,80,90.72077350361086
16,8.72872872872873,4.531498190649065e-05,80,90.72077350361086
16,8.73873873873874,-0.0019485630568921,80,90.72077350361086
16,8.74874874874875,-0.0063357360534699,80,90.72077350361086
16,8.75875875875876,-0.0070377002043475,80,90.72077350361086
16,8.76876876876877,0.0020935620965582,80,90.72077350361086
16,8.77877877877878,-0.0047011782316856,80,90.72077350361086
16,8.78878878878879,-0.0103036658362042,80,90.72077350361086
16,8.7987987987988,-0.0133875502911949,80,90.72077350361086
16,8.80880880880881,-0.0309726445614676,80,90.72077350361086
16,8.81881881881882,-0.0313628554335226,80,90.72077350361086
16,8.82882882882883,-0.0506385917966491,80,90.72077350361086
16,8.83883883883884,-0.0713343472047304,80,90.72077350361086
16,8.84884884884885,-0.1075012674784211,80,90.72077350361086
16,8.85885885885886,-0.1338714285935957,80,90.72077350361086
16,8.86886886886887,-0.1766105698794316,80,90.72077350361086
16,8.87887887887888,-0.2169145013027262,80,90.72077350361086
16,8.88888888888889,-0.2519401023431606,80,90.72077350361086
16,8.8988988988989,-0.2951155424333264,80,90.72077350361086
16,8.90890890890891,-0.3613749129276325,80,90.72077350361086
16,8.91891891891892,-0.3995245619967671,80,90.72077350361086
16,8.92892892892893,-0.4481806471985146,80,90.72077350361086
16,8.93893893893894,-0.506075203292645,80,90.72077350361086
16,8.94894894894895,-0.5572914072601876,80,90.72077350361086
16,8.95895895895896,-0.610802114526138,80,90.72077350361086
16,8.96896896896897,-0.6429658955831021,80,90.72077350361086
16,8.97897897897898,-0.6802196211326553,80,90.72077350361086
16,8.98898898898899,-0.7168853036617872,80,90.72077350361086
16,8.998998998999,-0.7423676485707577,80,90.72077350361086
16,9.00900900900901,-0.7637575660733077,80,90.72077350361086
16,9.01901901901902,-0.7853454414139236,80,90.72077350361086
16,9.02902902902903,-0.7836278914193218,80,90.72077350361086
16,9.03903903903904,-0.770935925297163,80,90.72077350361086
16,9.04904904904905,-0.7550957955347158,80,90.72077350361086
16,9.05905905905906,-0.735894742328954,80,90.72077350361086
16,9.06906906906907,-0.6923624209675162,80,90.72077350361086
16,9.07907907907908,-0.6642161196324821,80,90.72077350361086
16,9.08908908908909,-0.6118203622186272,80,90.72077350361086
16,9.0990990990991,-0.5497191538133231,80,90.72077350361086
16,9.10910910910911,-0.4805778589140294,80,90.72077350361086
16,9.11911911911912,-0.3959757479701014,80,90.72077350361086
16,9.12912912912913,-0.335822251493687,80,90.72077350361086
16,9.13913913913914,-0.2419538443426103,80,90.72077350361086
16,9.14914914914915,-0.1475289666022419,80,90.72077350361086
16,9.15915915915916,-0.0588436527134983,80,90.72077350361086
16,9.16916916916917,0.0239759648377617,80,90.72077350361086
16,9.17917917917918,0.1135354674319096,80,90.72077350361086
16,9.18918918918919,0.2068535212133732,80,90.72077350361086
16,9.1991991991992,0.2879636355184765,80,90.72077350361086
16,9.20920920920921,0.3655985593317297,80,90.72077350361086
16,9.21921921921922,0.4498861532084071,80,90.72077350361086
16,9.22922922922923,0.5221003437352855,80,90.72077350361086
16,9.23923923923924,0.5714558371822244,80,90.72077350361086
16,9.24924924924925,0.6393837824467463,80,90.72077350361086
16,9.25925925925926,0.6869997586134885,80,90.72077350361086
16,9.26926926926927,0.7160567266962784,80,90.72077350361086
16,9.27927927927928,0.7438242261954803,80,90.72077350361086
16,9.28928928928929,0.7721299898412782,80,90.72077350361086
16,9.2992992992993,0.7736075283900624,80,90.72077350361086
16,9.30930930930931,0.7763458347759492,80,90.72077350361086
16,9.31931931931932,0.7761049064489802,80,90.72077350361086
16,9.32932932932933,0.7590995388679075,80,90.72077350361086
16,9.33933933933934,0.7302193942221729,80,90.72077350361086
16,9.34934934934935,0.6978364986647244,80,90.72077350361086
16,9.35935935935936,0.6680016251463804,80,90.72077350361086
16,9.36936936936937,0.6245619357160792,80,90.72077350361086
16,9.37937937937938,0.5890754242047003,80,90.72077350361086
16,9.38938938938939,0.5356060734061843,80,90.72077350361086
16,9.3993993993994,0.4836703129692264,80,90.72077350361086
16,9.40940940940941,0.4383966131935544,80,90.72077350361086
16,9.41941941941942,0.3808967028361865,80,90.72077350361086
16,9.42942942942943,0.3378376022347145,80,90.72077350361086
16,9.43943943943944,0.2861131606192502,80,90.72077350361086
16,9.44944944944945,0.2370640394984967,80,90.72077350361086
16,9.45945945945946,0.1929211157819335,80,90.72077350361086
16,9.46946946946947,0.1598232524045108,80,90.72077350361086
16,9.47947947947948,0.1162704257220758,80,90.72077350361086
16,9.48948948948949,0.0872464179965191,80,90.72077350361086
16,9.4994994994995,0.0718832848213762,80,90.72077350361086
16,9.50950950950951,0.051687338693423,80,90.72077350361086
16,9.51951951951952,0.033699197753762,80,90.72077350361086
16,9.52952952952953,0.0153571686571991,80,90.72077350361086
16,9.53953953953954,0.0116738629309526,80,90.72077350361086
16,9.54954954954955,0.0093580982056553,80,90.72077350361086
16,9.55955955955956,-0.0019777543681102,80,90.72077350361086
16,9.56956956956957,-0.001231523571875,80,90.72077350361086
16,9.57957957957958,0.0011143224134694,80,90.72077350361086
16,9.58958958958959,0.0047449629927084,80,90.72077350361086
16,9.5995995995996,0.0068594984982311,80,90.72077350361086
16,9.60960960960961,-0.0076421255360673,80,90.72077350361086
16,9.61961961961962,-0.0129512936867893,80,90.72077350361086
16,9.62962962962963,-0.0114996445898427,80,90.72077350361086
16,9.63963963963964,-0.0172822239732989,80,90.72077350361086
16,9.64964964964965,-0.0384792935347198,80,90.72077350361086
16,9.65965965965966,-0.0499084509700156,80,90.72077350361086
16,9.66966966966967,-0.0658909855412847,80,90.72077350361086
16,9.67967967967968,-0.0979984217671461,80,90.72077350361086
16,9.68968968968969,-0.1269775479576714,80,90.72077350361086
16,9.6996996996997,-0.1675282840448244,80,90.72077350361086
16,9.70970970970971,-0.2080176960583873,80,90.72077350361086
16,9.71971971971972,-0.2496043534768981,80,90.72077350361086
16,9.72972972972973,-0.2909422896397967,80,90.72077350361086
16,9.73973973973974,-0.3444031556354446,80,90.72077350361086
16,9.74974974974975,-0.3900147636770778,80,90.72077350361086
16,9.75975975975976,-0.4449536614207331,80,90.72077350361086
16,9.76976976976977,-0.493717828748403,80,90.72077350361086
16,9.77977977977978,-0.542259417225675,80,90.72077350361086
16,9.78978978978979,-0.6064873481696904,80,90.72077350361086
16,9.7997997997998,-0.6476237357315179,80,90.72077350361086
16,9.80980980980981,-0.675488466982969,80,90.72077350361086
16,9.81981981981982,-0.713602460890885,80,90.72077350361086
16,9.82982982982983,-0.7354044935528428,80,90.72077350361086
16,9.83983983983984,-0.7624168233685189,80,90.72077350361086
16,9.84984984984985,-0.768457062512946,80,90.72077350361086
16,9.85985985985986,-0.7765270953393695,80,90.72077350361086
16,9.86986986986987,-0.7766942331987303,80,90.72077350361086
16,9.87987987987988,-0.7638076943230241,80,90.72077350361086
16,9.88988988988989,-0.7385693661920135,80,90.72077350361086
16,9.8998998998999,-0.7069062181053527,80,90.72077350361086
16,9.90990990990991,-0.6742597997861541,80,90.72077350361086
16,9.91991991991992,-0.6273224420148082,80,90.72077350361086
16,9.92992992992993,-0.5650674012037166,80,90.72077350361086
16,9.93993993993994,-0.4964966018285354,80,90.72077350361086
16,9.94994994994995,-0.424566555532247,80,90.72077350361086
16,9.95995995995996,-0.3448135535221743,80,90.72077350361086
16,9.96996996996997,-0.2619310354720918,80,90.72077350361086
16,9.97997997997998,-0.1727849611313748,80,90.72077350361086
16,9.98998998998999,-0.0981790961694291,80,90.72077350361086
16,10.0,-0.0021055244469053,80,90.72077350361086
