Subject_ID,Time,PPG,HR,HRV
14,0.0,-0.0025130348274351,65,88.12241626924867
14,0.01001001001001,0.0931196793055289,65,88.12241626924867
14,0.02002002002002,0.1790902984253534,65,88.12241626924867
14,0.03003003003003,0.2736119675533605,65,88.12241626924867
14,0.04004004004004,0.3455063518428263,65,88.12241626924867
14,0.05005005005005,0.4194432010485628,65,88.12241626924867
14,0.06006006006006,0.501781118634861,65,88.12241626924867
14,0.07007007007007,0.5601419475757303,65,88.12241626924867
14,0.08008008008008,0.6171463023066321,65,88.12241626924867
14,0.09009009009009,0.6699312383489912,65,88.12241626924867
14,0.1001001001001,0.7101092490887905,65,88.12241626924867
14,0.1101101101101101,0.743933793036511,65,88.12241626924867
14,0.1201201201201201,0.7673454992772645,65,88.12241626924867
14,0.1301301301301301,0.7749934915779785,65,88.12241626924867
14,0.1401401401401401,0.7820930382335108,65,88.12241626924867
14,0.1501501501501501,0.7700689861711577,65,88.12241626924867
14,0.1601601601601601,0.7667904927165969,65,88.12241626924867
14,0.1701701701701701,0.7448240716129978,65,88.12241626924867
14,0.1801801801801801,0.700626577647864,65,88.12241626924867
14,0.1901901901901901,0.6733032279907958,65,88.12241626924867
14,0.2002002002002001,0.6337134448570731,65,88.12241626924867
14,0.2102102102102102,0.5930733320492776,65,88.12241626924867
14,0.2202202202202202,0.5428762992933072,65,88.12241626924867
14,0.2302302302302302,0.4864347307033805,65,88.12241626924867
14,0.2402402402402402,0.4382656480795429,65,88.12241626924867
14,0.2502502502502503,0.3949948286889963,65,88.12241626924867
14,0.2602602602602603,0.3440672215584409,65,88.12241626924867
14,0.2702702702702703,0.2889226557860533,65,88.12241626924867
14,0.2802802802802803,0.2551579223815902,65,88.12241626924867
14,0.2902902902902903,0.2069233422787358,65,88.12241626924867
14,0.3003003003003003,0.1585051767654293,65,88.12241626924867
14,0.3103103103103103,0.1324722227240839,65,88.12241626924867
14,0.3203203203203203,0.1113215877794643,65,88.12241626924867
14,0.3303303303303303,0.0741692287701299,65,88.12241626924867
14,0.3403403403403403,0.0553807247002468,65,88.12241626924867
14,0.3503503503503503,0.035309281601645,65,88.12241626924867
14,0.3603603603603603,0.02330366390802,65,88.12241626924867
14,0.3703703703703703,0.0116445018991799,65,88.12241626924867
14,0.3803803803803803,0.0006100699207888,65,88.12241626924867
14,0.3903903903903903,0.0079885920782126,65,88.12241626924867
14,0.4004004004004003,-0.0091778769401196,65,88.12241626924867
14,0.4104104104104104,0.0013701395946753,65,88.12241626924867
14,0.4204204204204204,0.0058554161262153,65,88.12241626924867
14,0.4304304304304304,0.0101965958444969,65,88.12241626924867
14,0.4404404404404404,-0.0065318665050395,65,88.12241626924867
14,0.4504504504504504,-0.0001273376597496,65,88.12241626924867
14,0.4604604604604604,-0.0158930201667641,65,88.12241626924867
14,0.4704704704704704,-0.023787233931698,65,88.12241626924867
14,0.4804804804804805,-0.0303991332273862,65,88.12241626924867
14,0.4904904904904905,-0.0514953610517187,65,88.12241626924867
14,0.5005005005005005,-0.077072498978022,65,88.12241626924867
14,0.5105105105105106,-0.0951314729282861,65,88.12241626924867
14,0.5205205205205206,-0.1247602491466198,65,88.12241626924867
14,0.5305305305305306,-0.1570800881004851,65,88.12241626924867
14,0.5405405405405406,-0.1957537921263213,65,88.12241626924867
14,0.5505505505505506,-0.2350144859120408,65,88.12241626924867
14,0.5605605605605606,-0.2864522437688682,65,88.12241626924867
14,0.5705705705705706,-0.3327565336753704,65,88.12241626924867
14,0.5805805805805806,-0.379804490472362,65,88.12241626924867
14,0.5905905905905906,-0.4384669403390107,65,88.12241626924867
14,0.6006006006006006,-0.4904076182731302,65,88.12241626924867
14,0.6106106106106106,-0.5397895395525887,65,88.12241626924867
14,0.6206206206206206,-0.5877285358020388,65,88.12241626924867
14,0.6306306306306306,-0.625062909644304,65,88.12241626924867
14,0.6406406406406406,-0.6642369663836375,65,88.12241626924867
14,0.6506506506506506,-0.7045551688981119,65,88.12241626924867
14,0.6606606606606606,-0.7272811298484453,65,88.12241626924867
14,0.6706706706706707,-0.7495170853231619,65,88.12241626924867
14,0.6806806806806807,-0.7712806462324896,65,88.12241626924867
14,0.6906906906906907,-0.7769734017822818,65,88.12241626924867
14,0.7007007007007007,-0.7782758424159635,65,88.12241626924867
14,0.7107107107107107,-0.7561703400380908,65,88.12241626924867
14,0.7207207207207207,-0.7464295105973372,65,88.12241626924867
14,0.7307307307307307,-0.7249013079226112,65,88.12241626924867
14,0.7407407407407407,-0.6732875595634744,65,88.12241626924867
14,0.7507507507507507,-0.6383754235685185,65,88.12241626924867
14,0.7607607607607607,-0.5723690252746383,65,88.12241626924867
14,0.7707707707707707,-0.5179040182605036,65,88.12241626924867
14,0.7807807807807807,-0.4467996815425655,65,88.12241626924867
14,0.7907907907907907,-0.3702558404771706,65,88.12241626924867
14,0.8008008008008007,-0.2842776822912345,65,88.12241626924867
14,0.8108108108108109,-0.2010407301233746,65,88.12241626924867
14,0.8208208208208209,-0.110729138257023,65,88.12241626924867
14,0.8308308308308309,-0.0230572976843455,65,88.12241626924867
14,0.8408408408408409,0.065869088726204,65,88.12241626924867
14,0.8508508508508509,0.1609616185850724,65,88.12241626924867
14,0.8608608608608609,0.2496955153226227,65,88.12241626924867
14,0.8708708708708709,0.3356390214743392,65,88.12241626924867
14,0.8808808808808809,0.4080355101636469,65,88.12241626924867
14,0.8908908908908909,0.4820161295865989,65,88.12241626924867
14,0.9009009009009008,0.5521127914109301,65,88.12241626924867
14,0.9109109109109108,0.6091543997165856,65,88.12241626924867
14,0.9209209209209208,0.6619013562096826,65,88.12241626924867
14,0.9309309309309308,0.7018218466654379,65,88.12241626924867
14,0.9409409409409408,0.7322163894675822,65,88.12241626924867
14,0.950950950950951,0.7588474864918473,65,88.12241626924867
14,0.960960960960961,0.775262504034443,65,88.12241626924867
14,0.970970970970971,0.7703202283117496,65,88.12241626924867
14,0.980980980980981,0.775825384045301,65,88.12241626924867
14,0.990990990990991,0.7594234105661464,65,88.12241626924867
14,1.001001001001001,0.7426047614809737,65,88.12241626924867
14,1.011011011011011,0.7189987257814562,65,88.12241626924867
14,1.021021021021021,0.6860770297002916,65,88.12241626924867
14,1.031031031031031,0.6477145167973749,65,88.12241626924867
14,1.0410410410410411,0.6032889471882873,65,88.12241626924867
14,1.0510510510510511,0.5471791927842216,65,88.12241626924867
14,1.0610610610610611,0.5123792769427273,65,88.12241626924867
14,1.0710710710710711,0.456646783481573,65,88.12241626924867
14,1.0810810810810811,0.4088963712980075,65,88.12241626924867
14,1.0910910910910911,0.3468163507150246,65,88.12241626924867
14,1.1011011011011012,0.3008661246014166,65,88.12241626924867
14,1.1111111111111112,0.2627499318413698,65,88.12241626924867
14,1.1211211211211212,0.2177150363111514,65,88.12241626924867
14,1.1311311311311312,0.1759343031936346,65,88.12241626924867
14,1.1411411411411412,0.144875710095457,65,88.12241626924867
14,1.1511511511511512,0.1114773624129134,65,88.12241626924867
14,1.1611611611611612,0.0762281489250019,65,88.12241626924867
14,1.1711711711711712,0.0549811912814176,65,88.12241626924867
14,1.1811811811811812,0.0459580262274671,65,88.12241626924867
14,1.1911911911911912,0.0291300957569118,65,88.12241626924867
14,1.2012012012012012,0.0060384294657158,65,88.12241626924867
14,1.2112112112112112,0.0049662792022344,65,88.12241626924867
14,1.2212212212212212,0.0014959421164344,65,88.12241626924867
14,1.2312312312312312,-0.0096389910914732,65,88.12241626924867
14,1.2412412412412412,-0.0037820162691633,65,88.12241626924867
14,1.2512512512512513,0.0023860559965143,65,88.12241626924867
14,1.2612612612612613,-0.0055903426308326,65,88.12241626924867
14,1.2712712712712713,-0.0072200377345669,65,88.12241626924867
14,1.2812812812812813,-0.0050383592859092,65,88.12241626924867
14,1.2912912912912913,-0.0166456385793062,65,88.12241626924867
14,1.3013013013013013,-0.0257315067134528,65,88.12241626924867
14,1.3113113113113113,-0.0287345923662496,65,88.12241626924867
14,1.3213213213213213,-0.0411517908203628,65,88.12241626924867
14,1.3313313313313313,-0.068150510934734,65,88.12241626924867
14,1.3413413413413413,-0.0851557255091693,65,88.12241626924867
14,1.351351351351351,-0.1166562384792828,65,88.12241626924867
14,1.361361361361361,-0.1546441506160311,65,88.12241626924867
14,1.371371371371371,-0.1982108783003575,65,88.12241626924867
14,1.3813813813813811,-0.2236416462483846,65,88.12241626924867
14,1.3913913913913911,-0.26635071296532,65,88.12241626924867
14,1.4014014014014011,-0.3094759002909611,65,88.12241626924867
14,1.4114114114114114,-0.365545347078659,65,88.12241626924867
14,1.4214214214214214,-0.4135222620092236,65,88.12241626924867
14,1.4314314314314314,-0.4625391080004745,65,88.12241626924867
14,1.4414414414414414,-0.5140105702205131,65,88.12241626924867
14,1.4514514514514514,-0.5699868612269265,65,88.12241626924867
14,1.4614614614614614,-0.6169759098777334,65,88.12241626924867
14,1.4714714714714714,-0.6572046309047486,65,88.12241626924867
14,1.4814814814814814,-0.6910202597754306,65,88.12241626924867
14,1.4914914914914914,-0.7205534224320208,65,88.12241626924867
14,1.5015015015015014,-0.7553927262208275,65,88.12241626924867
14,1.5115115115115114,-0.7720833144677239,65,88.12241626924867
14,1.5215215215215214,-0.7709623766155187,65,88.12241626924867
14,1.5315315315315314,-0.7768506963714712,65,88.12241626924867
14,1.5415415415415414,-0.7664652758808765,65,88.12241626924867
14,1.5515515515515514,-0.7507634089126493,65,88.12241626924867
14,1.5615615615615617,-0.7222122377476325,65,88.12241626924867
14,1.5715715715715717,-0.687933109319714,65,88.12241626924867
14,1.5815815815815817,-0.6500760596533186,65,88.12241626924867
14,1.5915915915915917,-0.587852089569422,65,88.12241626924867
14,1.6016016016016017,-0.5272238974652369,65,88.12241626924867
14,1.6116116116116117,-0.4578189990670052,65,88.12241626924867
14,1.6216216216216215,-0.3909904330561694,65,88.12241626924867
14,1.6316316316316315,-0.3118942585337878,65,88.12241626924867
14,1.6416416416416415,-0.2307701889784427,65,88.12241626924867
14,1.6516516516516515,-0.1368885130942963,65,88.12241626924867
14,1.6616616616616615,-0.0416195783202245,65,88.12241626924867
14,1.6716716716716715,0.0383479943608098,65,88.12241626924867
14,1.6816816816816818,0.1321634845517114,65,88.12241626924867
14,1.6916916916916918,0.2304369142041503,65,88.12241626924867
14,1.7017017017017018,0.3097694603053372,65,88.12241626924867
14,1.7117117117117118,0.3894063465720807,65,88.12241626924867
14,1.7217217217217218,0.4650407027538672,65,88.12241626924867
14,1.7317317317317318,0.5382104460754606,65,88.12241626924867
14,1.7417417417417418,0.596645736500194,65,88.12241626924867
14,1.7517517517517518,0.6462158395842275,65,88.12241626924867
14,1.7617617617617618,0.6948854122427642,65,88.12241626924867
14,1.7717717717717718,0.7252831218105252,65,88.12241626924867
14,1.7817817817817818,0.7537502709124623,65,88.12241626924867
14,1.7917917917917918,0.7767100822311647,65,88.12241626924867
14,1.8018018018018016,0.781635143826803,65,88.12241626924867
14,1.811811811811812,0.7834908635758266,65,88.12241626924867
14,1.8218218218218216,0.7613498095415818,65,88.12241626924867
14,1.831831831831832,0.745719374596306,65,88.12241626924867
14,1.8418418418418416,0.7305827655995588,65,88.12241626924867
14,1.851851851851852,0.6932088960570391,65,88.12241626924867
14,1.8618618618618616,0.6533559888691384,65,88.12241626924867
14,1.871871871871872,0.6114215629221298,65,88.12241626924867
14,1.8818818818818817,0.5695858694810345,65,88.12241626924867
14,1.891891891891892,0.5194124164332935,65,88.12241626924867
14,1.901901901901902,0.4795484783004672,65,88.12241626924867
14,1.911911911911912,0.419157773437817,65,88.12241626924867
14,1.921921921921922,0.3605039517769881,65,88.12241626924867
14,1.931931931931932,0.3193563946568366,65,88.12241626924867
14,1.941941941941942,0.2740852126289539,65,88.12241626924867
14,1.951951951951952,0.229000403176475,65,88.12241626924867
14,1.961961961961962,0.1911566048335684,65,88.12241626924867
14,1.971971971971972,0.1478898070485727,65,88.12241626924867
14,1.981981981981982,0.1198841682599041,65,88.12241626924867
14,1.991991991991992,0.0851805869455858,65,88.12241626924867
14,2.002002002002002,0.0615602803161814,65,88.12241626924867
14,2.012012012012012,0.0447863658891925,65,88.12241626924867
14,2.022022022022022,0.0317407081891343,65,88.12241626924867
14,2.032032032032032,0.020653092235074,65,88.12241626924867
14,2.042042042042042,0.0022993961097991,65,88.12241626924867
14,2.052052052052052,0.0055887109952711,65,88.12241626924867
14,2.062062062062062,0.0026897727969436,65,88.12241626924867
14,2.072072072072072,0.0062451737293188,65,88.12241626924867
14,2.0820820820820822,-0.0015306050019383,65,88.12241626924867
14,2.092092092092092,-0.0091147620404338,65,88.12241626924867
14,2.1021021021021022,-0.0025613960844378,65,88.12241626924867
14,2.112112112112112,-0.0068647765656436,65,88.12241626924867
14,2.1221221221221223,-0.0065644735555999,65,88.12241626924867
14,2.1321321321321323,-0.0145092928690202,65,88.12241626924867
14,2.1421421421421423,-0.0226391121250587,65,88.12241626924867
14,2.1521521521521523,-0.0424051969252844,65,88.12241626924867
14,2.1621621621621623,-0.0529636432532087,65,88.12241626924867
14,2.1721721721721723,-0.0782035891516262,65,88.12241626924867
14,2.1821821821821823,-0.1057588443719277,65,88.12241626924867
14,2.1921921921921923,-0.141940573238489,65,88.12241626924867
14,2.2022022022022023,-0.176497961394304,65,88.12241626924867
14,2.2122122122122123,-0.2207886965871872,65,88.12241626924867
14,2.2222222222222223,-0.2590693942593401,65,88.12241626924867
14,2.2322322322322323,-0.3108644210075622,65,88.12241626924867
14,2.2422422422422423,-0.3547699540257965,65,88.12241626924867
14,2.2522522522522523,-0.4070977078489056,65,88.12241626924867
14,2.2622622622622623,-0.4616756093433805,65,88.12241626924867
14,2.2722722722722724,-0.4991392485153456,65,88.12241626924867
14,2.2822822822822824,-0.5518406128912758,65,88.12241626924867
14,2.2922922922922924,-0.6051473116771473,65,88.12241626924867
14,2.3023023023023024,-0.6449065710459039,65,88.12241626924867
14,2.3123123123123124,-0.6788956770725071,65,88.12241626924867
14,2.3223223223223224,-0.7167400776077864,65,88.12241626924867
14,2.3323323323323324,-0.7420372572127782,65,88.12241626924867
14,2.3423423423423424,-0.7722924578072528,65,88.12241626924867
14,2.3523523523523524,-0.7703074665687042,65,88.12241626924867
14,2.3623623623623624,-0.7772034484009663,65,88.12241626924867
14,2.3723723723723724,-0.7733977511266209,65,88.12241626924867
14,2.3823823823823824,-0.7575020680579284,65,88.12241626924867
14,2.3923923923923924,-0.7346092404040587,65,88.12241626924867
14,2.4024024024024024,-0.6990848460864869,65,88.12241626924867
14,2.4124124124124124,-0.6469432421735134,65,88.12241626924867
14,2.4224224224224224,-0.6102447897379366,65,88.12241626924867
14,2.4324324324324325,-0.5449065794235757,65,88.12241626924867
14,2.4424424424424425,-0.4844896093251288,65,88.12241626924867
14,2.4524524524524525,-0.407231191649529,65,88.12241626924867
14,2.4624624624624625,-0.3294327754141671,65,88.12241626924867
14,2.4724724724724725,-0.2417480766704656,65,88.12241626924867
14,2.4824824824824825,-0.1638833174487167,65,88.12241626924867
14,2.4924924924924925,-0.0745816886132836,65,88.12241626924867
14,2.5025025025025025,0.032757253866037,65,88.12241626924867
14,2.5125125125125125,0.1256699522621785,65,88.12241626924867
14,2.5225225225225225,0.1950740811364816,65,88.12241626924867
14,2.5325325325325325,0.2848549030602316,65,88.12241626924867
14,2.5425425425425425,0.3628879963330481,65,88.12241626924867
14,2.5525525525525525,0.4423422766080662,65,88.12241626924867
14,2.5625625625625625,0.5210963485296867,65,88.12241626924867
14,2.5725725725725725,0.5768985020647297,65,88.12241626924867
14,2.5825825825825826,0.631448039680496,65,88.12241626924867
14,2.592592592592593,0.6839970190310801,65,88.12241626924867
14,2.6026026026026026,0.7192978674148718,65,88.12241626924867
14,2.612612612612613,0.7506666338126149,65,88.12241626924867
14,2.6226226226226226,0.7783939148986128,65,88.12241626924867
14,2.6326326326326326,0.7867388854826786,65,88.12241626924867
14,2.6426426426426426,0.7820972833061949,65,88.12241626924867
14,2.6526526526526526,0.7738147047870382,65,88.12241626924867
14,2.6626626626626626,0.753326062665962,65,88.12241626924867
14,2.6726726726726726,0.7350811376865546,65,88.12241626924867
14,2.6826826826826826,0.7030132868533032,65,88.12241626924867
14,2.6926926926926926,0.6705392198879377,65,88.12241626924867
14,2.702702702702702,0.6222683213544576,65,88.12241626924867
14,2.7127127127127126,0.5754908625373968,65,88.12241626924867
14,2.722722722722722,0.5375404067929181,65,88.12241626924867
14,2.7327327327327327,0.4805993250933701,65,88.12241626924867
14,2.7427427427427427,0.4242761091747594,65,88.12241626924867
14,2.7527527527527527,0.3788932121772954,65,88.12241626924867
14,2.7627627627627627,0.3276717812258697,65,88.12241626924867
14,2.7727727727727727,0.2919043863667859,65,88.12241626924867
14,2.7827827827827827,0.2313070931874357,65,88.12241626924867
14,2.7927927927927927,0.1961550590560986,65,88.12241626924867
14,2.8028028028028027,0.1637530175893325,65,88.12241626924867
14,2.8128128128128127,0.1209047019829237,65,88.12241626924867
14,2.8228228228228227,0.0964528706696345,65,88.12241626924867
14,2.8328328328328327,0.0765719100020639,65,88.12241626924867
14,2.8428428428428427,0.0432469659123953,65,88.12241626924867
14,2.8528528528528527,0.0281650496846157,65,88.12241626924867
14,2.8628628628628627,0.0200718944066934,65,88.12241626924867
14,2.8728728728728727,0.0144676681297441,65,88.12241626924867
14,2.8828828828828827,0.0065604483833424,65,88.12241626924867
14,2.8928928928928928,0.0115823471157202,65,88.12241626924867
14,2.9029029029029028,-0.0027709315105083,65,88.12241626924867
14,2.9129129129129128,0.0093378920629935,65,88.12241626924867
14,2.9229229229229228,-0.0031113767403012,65,88.12241626924867
14,2.932932932932933,0.0083388972550575,65,88.12241626924867
14,2.942942942942943,-3.0465323886517785e-05,65,88.12241626924867
14,2.952952952952953,-0.0045855068610727,65,88.12241626924867
14,2.962962962962963,-0.0060167011429407,65,88.12241626924867
14,2.972972972972973,-0.0201975833732949,65,88.12241626924867
14,2.982982982982983,-0.0353912741292997,65,88.12241626924867
14,2.992992992992993,-0.0445413792179374,65,88.12241626924867
14,3.003003003003003,-0.0787394574411704,65,88.12241626924867
14,3.013013013013013,-0.0994256295987654,65,88.12241626924867
14,3.023023023023023,-0.1328677791794328,65,88.12241626924867
14,3.033033033033033,-0.162151092763678,65,88.12241626924867
14,3.043043043043043,-0.2101996355755673,65,88.12241626924867
14,3.053053053053053,-0.2464837047571331,65,88.12241626924867
14,3.063063063063063,-0.2958612142472964,65,88.12241626924867
14,3.073073073073073,-0.3451982353195011,65,88.12241626924867
14,3.083083083083083,-0.3932047149164122,65,88.12241626924867
14,3.093093093093093,-0.4457226564055515,65,88.12241626924867
14,3.103103103103103,-0.4854720520505446,65,88.12241626924867
14,3.113113113113113,-0.5551322236707645,65,88.12241626924867
14,3.123123123123123,-0.5902720559336841,65,88.12241626924867
14,3.133133133133133,-0.64295712134434,65,88.12241626924867
14,3.143143143143143,-0.6749817369841297,65,88.12241626924867
14,3.153153153153153,-0.7156746359814306,65,88.12241626924867
14,3.163163163163163,-0.7335099152140472,65,88.12241626924867
14,3.173173173173173,-0.7629812756822741,65,88.12241626924867
14,3.183183183183183,-0.780430010866255,65,88.12241626924867
14,3.193193193193193,-0.7718031255042108,65,88.12241626924867
14,3.203203203203203,-0.7705847463438517,65,88.12241626924867
14,3.2132132132132134,-0.7636217842635846,65,88.12241626924867
14,3.2232232232232234,-0.7369281685302974,65,88.12241626924867
14,3.2332332332332334,-0.7154090918758738,65,88.12241626924867
14,3.2432432432432434,-0.6599002555710296,65,88.12241626924867
14,3.253253253253253,-0.6250211345909454,65,88.12241626924867
14,3.2632632632632634,-0.5615082480379062,65,88.12241626924867
14,3.273273273273273,-0.5035323400000535,65,88.12241626924867
14,3.2832832832832834,-0.4246645693382311,65,88.12241626924867
14,3.293293293293293,-0.3462698480112297,65,88.12241626924867
14,3.3033033033033035,-0.2574095223906387,65,88.12241626924867
14,3.313313313313313,-0.1855482361232368,65,88.12241626924867
14,3.3233233233233235,-0.0924675039127928,65,88.12241626924867
14,3.333333333333333,0.0089999772555255,65,88.12241626924867
14,3.3433433433433435,0.0894262817676667,65,88.12241626924867
14,3.353353353353353,0.1814099614621663,65,88.12241626924867
14,3.3633633633633635,0.2624767381784382,65,88.12241626924867
14,3.373373373373373,0.3533457642729685,65,88.12241626924867
14,3.3833833833833835,0.4233186007039084,65,88.12241626924867
14,3.393393393393393,0.4931845019577002,65,88.12241626924867
14,3.4034034034034035,0.5539501383562521,65,88.12241626924867
14,3.413413413413413,0.6137758526892086,65,88.12241626924867
14,3.4234234234234235,0.6718795165575193,65,88.12241626924867
14,3.433433433433433,0.7052894812688784,65,88.12241626924867
14,3.443443443443444,0.740057272927974,65,88.12241626924867
14,3.4534534534534536,0.7549443520079269,65,88.12241626924867
14,3.463463463463464,0.7661029908108737,65,88.12241626924867
14,3.4734734734734736,0.7751791881278346,65,88.12241626924867
14,3.483483483483484,0.7821450606109939,65,88.12241626924867
14,3.4934934934934936,0.7672419028682156,65,88.12241626924867
14,3.503503503503504,0.7367114581840657,65,88.12241626924867
14,3.5135135135135136,0.7219406008629342,65,88.12241626924867
14,3.523523523523524,0.6791504731391207,65,88.12241626924867
14,3.5335335335335336,0.6307268911321394,65,88.12241626924867
14,3.543543543543544,0.5926353625112531,65,88.12241626924867
14,3.5535535535535536,0.5459352598216157,65,88.12241626924867
14,3.563563563563564,0.489060775941345,65,88.12241626924867
14,3.5735735735735736,0.4445764579801073,65,88.12241626924867
14,3.583583583583584,0.3862351573899145,65,88.12241626924867
14,3.5935935935935936,0.3542460203369236,65,88.12241626924867
14,3.603603603603604,0.2995160222644899,65,88.12241626924867
14,3.6136136136136137,0.2511682022786085,65,88.12241626924867
14,3.623623623623624,0.2058468425139878,65,88.12241626924867
14,3.6336336336336337,0.1628617391173216,65,88.12241626924867
14,3.643643643643644,0.1305895190804995,65,88.12241626924867
14,3.6536536536536537,0.0923349651397801,65,88.12241626924867
14,3.663663663663664,0.0749683725675463,65,88.12241626924867
14,3.6736736736736737,0.0476011871063684,65,88.12241626924867
14,3.683683683683684,0.0387937897852212,65,88.12241626924867
14,3.6936936936936937,0.0239570499292722,65,88.12241626924867
14,3.703703703703704,0.0052521858898514,65,88.12241626924867
14,3.7137137137137137,0.0132719104624952,65,88.12241626924867
14,3.723723723723724,-0.0031902350116596,65,88.12241626924867
14,3.7337337337337337,0.0046427626029755,65,88.12241626924867
14,3.743743743743744,-0.0083126143097289,65,88.12241626924867
14,3.7537537537537538,0.0072599362788844,65,88.12241626924867
14,3.763763763763764,-0.0036153568997887,65,88.12241626924867
14,3.7737737737737738,0.0007402782582214,65,88.12241626924867
14,3.783783783783784,0.0001207556337593,65,88.12241626924867
14,3.793793793793794,-0.0073810546117931,65,88.12241626924867
14,3.803803803803804,-0.0118740834258075,65,88.12241626924867
14,3.813813813813814,-0.0431923273395269,65,88.12241626924867
14,3.823823823823824,-0.0523370228983766,65,88.12241626924867
14,3.833833833833834,-0.0705407841342092,65,88.12241626924867
14,3.843843843843844,-0.0932519662332349,65,88.12241626924867
14,3.853853853853854,-0.127535873279775,65,88.12241626924867
14,3.863863863863864,-0.1627645739568045,65,88.12241626924867
14,3.873873873873874,-0.1955583513579248,65,88.12241626924867
14,3.883883883883884,-0.2343595544089481,65,88.12241626924867
14,3.893893893893894,-0.2735424835655834,65,88.12241626924867
14,3.903903903903904,-0.3290172426721401,65,88.12241626924867
14,3.913913913913914,-0.3763970714848487,65,88.12241626924867
14,3.923923923923924,-0.429944881194405,65,88.12241626924867
14,3.933933933933934,-0.488263413758146,65,88.12241626924867
14,3.943943943943944,-0.5394484880299145,65,88.12241626924867
14,3.953953953953954,-0.585588546497961,65,88.12241626924867
14,3.963963963963964,-0.6230656479364,65,88.12241626924867
14,3.973973973973974,-0.6700981019954889,65,88.12241626924867
14,3.983983983983984,-0.7049242289688109,65,88.12241626924867
14,3.993993993993994,-0.7373910282707515,65,88.12241626924867
14,4.004004004004004,-0.7561755783624218,65,88.12241626924867
14,4.014014014014014,-0.7695526851473228,65,88.12241626924867
14,4.024024024024024,-0.773933689132352,65,88.12241626924867
14,4.034034034034034,-0.775483581847203,65,88.12241626924867
14,4.044044044044044,-0.7693811659003844,65,88.12241626924867
14,4.054054054054054,-0.7492314153863816,65,88.12241626924867
14,4.064064064064064,-0.7138671392055655,65,88.12241626924867
14,4.074074074074074,-0.6800599128007505,65,88.12241626924867
14,4.084084084084084,-0.6345908640146748,65,88.12241626924867
14,4.094094094094094,-0.5795468599654521,65,88.12241626924867
14,4.104104104104104,-0.5084390164279011,65,88.12241626924867
14,4.114114114114114,-0.4566680449882368,65,88.12241626924867
14,4.124124124124124,-0.3671522562396466,65,88.12241626924867
14,4.134134134134134,-0.2886114662296064,65,88.12241626924867
14,4.144144144144144,-0.1966946578998924,65,88.12241626924867
14,4.1541541541541545,-0.1042951677950726,65,88.12241626924867
14,4.1641641641641645,-0.0248146913155941,65,88.12241626924867
14,4.174174174174175,0.0791217223413521,65,88.12241626924867
14,4.1841841841841845,0.1602215994222478,65,88.12241626924867
14,4.1941941941941945,0.2448208391009213,65,88.12241626924867
14,4.2042042042042045,0.3337095343431582,65,88.12241626924867
14,4.214214214214215,0.4005521821048532,65,88.12241626924867
14,4.2242242242242245,0.4781389739469843,65,88.12241626924867
14,4.2342342342342345,0.5495097710271145,65,88.12241626924867
14,4.2442442442442445,0.6026720384885021,65,88.12241626924867
14,4.254254254254255,0.659882187970247,65,88.12241626924867
14,4.2642642642642645,0.6972371891274629,65,88.12241626924867
14,4.2742742742742745,0.7365247963024838,65,88.12241626924867
14,4.2842842842842845,0.7538144240444985,65,88.12241626924867
14,4.294294294294295,0.7664536772723888,65,88.12241626924867
14,4.3043043043043046,0.770383265504283,65,88.12241626924867
14,4.314314314314315,0.7815171505266598,65,88.12241626924867
14,4.324324324324325,0.7623617067472166,65,88.12241626924867
14,4.334334334334335,0.7485901004725116,65,88.12241626924867
14,4.344344344344345,0.7251070237309342,65,88.12241626924867
14,4.354354354354355,0.6794410329359525,65,88.12241626924867
14,4.364364364364365,0.6428809893959665,65,88.12241626924867
14,4.374374374374375,0.5976713899480213,65,88.12241626924867
14,4.384384384384385,0.5560305555849164,65,88.12241626924867
14,4.394394394394395,0.4938632167735152,65,88.12241626924867
14,4.404404404404405,0.4681107450707636,65,88.12241626924867
14,4.414414414414415,0.3960381274504937,65,88.12241626924867
14,4.424424424424425,0.3562566084602054,65,88.12241626924867
14,4.434434434434435,0.2970207998150325,65,88.12241626924867
14,4.444444444444445,0.2580458852193402,65,88.12241626924867
14,4.454454454454455,0.2208450834352638,65,88.12241626924867
14,4.464464464464465,0.1792896566357699,65,88.12241626924867
14,4.474474474474475,0.1460967549973895,65,88.12241626924867
14,4.484484484484485,0.1077712818949471,65,88.12241626924867
14,4.494494494494495,0.0883169881520566,65,88.12241626924867
14,4.504504504504505,0.0527985318607158,65,88.12241626924867
14,4.514514514514515,0.0408600847490336,65,88.12241626924867
14,4.524524524524525,0.0257617254281674,65,88.12241626924867
14,4.534534534534535,0.027854079526072,65,88.12241626924867
14,4.544544544544545,0.0121462819603393,65,88.12241626924867
14,4.554554554554555,-0.0005378114089953,65,88.12241626924867
14,4.564564564564565,-0.0035331591554691,65,88.12241626924867
14,4.574574574574575,0.000803002813221,65,88.12241626924867
14,4.584584584584585,0.0063140612408427,65,88.12241626924867
14,4.594594594594595,0.003277567115278,65,88.12241626924867
14,4.604604604604605,0.0016101877913437,65,88.12241626924867
14,4.614614614614615,-0.003345328904882,65,88.12241626924867
14,4.624624624624625,-0.0102281845164076,65,88.12241626924867
14,4.634634634634635,-0.0277216974735162,65,88.12241626924867
14,4.644644644644645,-0.0205169446736894,65,88.12241626924867
14,4.654654654654655,-0.0392651928302599,65,88.12241626924867
14,4.664664664664665,-0.0640360571101156,65,88.12241626924867
14,4.674674674674675,-0.0866792776309906,65,88.12241626924867
14,4.684684684684685,-0.1163987103176561,65,88.12241626924867
14,4.694694694694695,-0.1517301637231483,65,88.12241626924867
14,4.704704704704705,-0.1849337013873004,65,88.12241626924867
14,4.714714714714715,-0.2318837756268304,65,88.12241626924867
14,4.724724724724725,-0.2725968822705016,65,88.12241626924867
14,4.734734734734735,-0.3182801340415404,65,88.12241626924867
14,4.744744744744745,-0.3722459014829928,65,88.12241626924867
14,4.754754754754755,-0.4280797360613712,65,88.12241626924867
14,4.764764764764765,-0.4637398197138563,65,88.12241626924867
14,4.774774774774775,-0.5078022758302931,65,88.12241626924867
14,4.784784784784785,-0.5690942112729359,65,88.12241626924867
14,4.794794794794795,-0.619118726282904,65,88.12241626924867
14,4.804804804804805,-0.6566736579543895,65,88.12241626924867
14,4.814814814814815,-0.697880435937803,65,88.12241626924867
14,4.824824824824825,-0.728640852855581,65,88.12241626924867
14,4.834834834834835,-0.7472236575558987,65,88.12241626924867
14,4.844844844844845,-0.7626277145235033,65,88.12241626924867
14,4.854854854854855,-0.782349478044041,65,88.12241626924867
14,4.864864864864865,-0.7792363104087656,65,88.12241626924867
14,4.874874874874875,-0.7667936404730613,65,88.12241626924867
14,4.884884884884885,-0.7555324670191894,65,88.12241626924867
14,4.894894894894895,-0.7239435327332127,65,88.12241626924867
14,4.904904904904905,-0.6887355794720196,65,88.12241626924867
14,4.914914914914915,-0.6452779417988898,65,88.12241626924867
14,4.924924924924925,-0.5902204272996068,65,88.12241626924867
14,4.934934934934935,-0.5238870190057259,65,88.12241626924867
14,4.944944944944945,-0.4650513750422683,65,88.12241626924867
14,4.954954954954955,-0.3954398163349978,65,88.12241626924867
14,4.964964964964965,-0.3116675251113234,65,88.12241626924867
14,4.974974974974975,-0.2263480921687475,65,88.12241626924867
14,4.984984984984985,-0.1273396313649631,65,88.12241626924867
14,4.994994994994995,-0.0506247914039752,65,88.12241626924867
14,5.005005005005005,0.0422060292054654,65,88.12241626924867
14,5.015015015015015,0.1439337463417435,65,88.12241626924867
14,5.025025025025025,0.2245726254371639,65,88.12241626924867
14,5.035035035035035,0.3011438011268577,65,88.12241626924867
14,5.045045045045045,0.3886794424071336,65,88.12241626924867
14,5.055055055055055,0.4609792860284087,65,88.12241626924867
14,5.065065065065065,0.5315715271340749,65,88.12241626924867
14,5.075075075075075,0.5948112438889804,65,88.12241626924867
14,5.085085085085085,0.6497708943918844,65,88.12241626924867
14,5.095095095095095,0.6939831970630275,65,88.12241626924867
14,5.105105105105105,0.7302745163191521,65,88.12241626924867
14,5.115115115115115,0.7537724081045492,65,88.12241626924867
14,5.125125125125125,0.7685581057002061,65,88.12241626924867
14,5.135135135135135,0.7799973181705483,65,88.12241626924867
14,5.145145145145145,0.7789152135873789,65,88.12241626924867
14,5.155155155155155,0.7784769422176661,65,88.12241626924867
14,5.165165165165165,0.7505984554409112,65,88.12241626924867
14,5.175175175175175,0.7203398965435059,65,88.12241626924867
14,5.185185185185185,0.6960198721422227,65,88.12241626924867
14,5.195195195195195,0.6519977770249776,65,88.12241626924867
14,5.205205205205205,0.6167705132502568,65,88.12241626924867
14,5.215215215215215,0.5664393104216132,65,88.12241626924867
14,5.225225225225225,0.5169832499127562,65,88.12241626924867
14,5.235235235235235,0.467291295038706,65,88.12241626924867
14,5.245245245245245,0.4188243555106637,65,88.12241626924867
14,5.255255255255255,0.3648440168028484,65,88.12241626924867
14,5.265265265265265,0.3127791127152016,65,88.12241626924867
14,5.275275275275275,0.2651277312534041,65,88.12241626924867
14,5.285285285285285,0.2174954155630938,65,88.12241626924867
14,5.295295295295295,0.1874622081605047,65,88.12241626924867
14,5.305305305305305,0.1418720063723312,65,88.12241626924867
14,5.315315315315315,0.1219414753811294,65,88.12241626924867
14,5.325325325325325,0.086589377695731,65,88.12241626924867
14,5.335335335335335,0.0588760004790798,65,88.12241626924867
14,5.345345345345345,0.0395483709832496,65,88.12241626924867
14,5.355355355355355,0.0240428847710848,65,88.12241626924867
14,5.365365365365365,0.0255886099701861,65,88.12241626924867
14,5.375375375375375,0.0103051935026434,65,88.12241626924867
14,5.385385385385385,-0.0059862691068662,65,88.12241626924867
14,5.395395395395395,0.006183199283217,65,88.12241626924867
14,5.405405405405405,0.0018763573728742,65,88.12241626924867
14,5.415415415415415,0.0076368025004558,65,88.12241626924867
14,5.425425425425425,0.0005379808692572,65,88.12241626924867
14,5.435435435435435,-0.0018860814400713,65,88.12241626924867
14,5.445445445445445,-0.0053230961189546,65,88.12241626924867
14,5.455455455455455,0.0002617988965098,65,88.12241626924867
14,5.465465465465465,-0.007744069266625,65,88.12241626924867
14,5.475475475475475,-0.0230757163473348,65,88.12241626924867
14,5.485485485485485,-0.0408342196135137,65,88.12241626924867
14,5.495495495495495,-0.0582974240545137,65,88.12241626924867
14,5.505505505505505,-0.0809054353733076,65,88.12241626924867
14,5.515515515515515,-0.1016925714605187,65,88.12241626924867
14,5.525525525525525,-0.1450311852426311,65,88.12241626924867
14,5.535535535535535,-0.1775728183862439,65,88.12241626924867
14,5.545545545545545,-0.2237373250880254,65,88.12241626924867
14,5.555555555555555,-0.2578643639789513,65,88.12241626924867
14,5.565565565565565,-0.3091490294244582,65,88.12241626924867
14,5.575575575575575,-0.3552235118397819,65,88.12241626924867
14,5.585585585585585,-0.4035308780718679,65,88.12241626924867
14,5.595595595595595,-0.4534624541601794,65,88.12241626924867
14,5.605605605605605,-0.519557970534643,65,88.12241626924867
14,5.615615615615615,-0.5659101985514662,65,88.12241626924867
14,5.625625625625625,-0.5906745624943277,65,88.12241626924867
14,5.635635635635635,-0.6475129477028614,65,88.12241626924867
14,5.645645645645645,-0.6833480832696589,65,88.12241626924867
14,5.655655655655655,-0.7242381073999729,65,88.12241626924867
14,5.665665665665665,-0.7406022634691817,65,88.12241626924867
14,5.675675675675675,-0.7721990445854263,65,88.12241626924867
14,5.685685685685685,-0.7772355102721575,65,88.12241626924867
14,5.695695695695696,-0.7816473030516593,65,88.12241626924867
14,5.7057057057057055,-0.7750869941947307,65,88.12241626924867
14,5.715715715715716,-0.7494522149365715,65,88.12241626924867
14,5.7257257257257255,-0.7322341081674137,65,88.12241626924867
14,5.735735735735736,-0.6975461494834182,65,88.12241626924867
14,5.7457457457457455,-0.6523716404196792,65,88.12241626924867
14,5.755755755755756,-0.6020609292251069,65,88.12241626924867
14,5.7657657657657655,-0.5508408146229499,65,88.12241626924867
14,5.775775775775776,-0.4784235828412379,65,88.12241626924867
14,5.7857857857857855,-0.4191581674831217,65,88.12241626924867
14,5.795795795795796,-0.3293166509136086,65,88.12241626924867
14,5.8058058058058055,-0.2445758830003428,65,88.12241626924867
14,5.815815815815816,-0.1591701919330237,65,88.12241626924867
14,5.8258258258258255,-0.0667428174338685,65,88.12241626924867
14,5.835835835835836,0.0213763113322532,65,88.12241626924867
14,5.8458458458458455,0.1168671816603449,65,88.12241626924867
14,5.855855855855856,0.2070199488619316,65,88.12241626924867
14,5.865865865865866,0.2912519244155308,65,88.12241626924867
14,5.875875875875876,0.373715746261478,65,88.12241626924867
14,5.885885885885886,0.4462733853570927,65,88.12241626924867
14,5.895895895895896,0.521659004340715,65,88.12241626924867
14,5.905905905905906,0.5780162747187377,65,88.12241626924867
14,5.915915915915916,0.6377549599928026,65,88.12241626924867
14,5.925925925925926,0.6795574783210153,65,88.12241626924867
14,5.935935935935936,0.7234069307574861,65,88.12241626924867
14,5.945945945945946,0.7447599915973494,65,88.12241626924867
14,5.955955955955956,0.766620017112945,65,88.12241626924867
14,5.965965965965966,0.7748415455973149,65,88.12241626924867
14,5.975975975975976,0.7800935897536768,65,88.12241626924867
14,5.985985985985986,0.7663535190742596,65,88.12241626924867
14,5.995995995995996,0.7565421409100772,65,88.12241626924867
14,6.006006006006006,0.7346280557192596,65,88.12241626924867
14,6.016016016016016,0.6958146094641534,65,88.12241626924867
14,6.026026026026026,0.6704789602978761,65,88.12241626924867
14,6.036036036036036,0.6263960288286796,65,88.12241626924867
14,6.046046046046046,0.5850382644164529,65,88.12241626924867
14,6.056056056056056,0.5289602134354274,65,88.12241626924867
14,6.066066066066066,0.4758681463281041,65,88.12241626924867
14,6.076076076076076,0.4385190792661208,65,88.12241626924867
14,6.086086086086086,0.3802997686144166,65,88.12241626924867
14,6.096096096096096,0.3281730083476449,65,88.12241626924867
14,6.106106106106106,0.2815477316082284,65,88.12241626924867
14,6.116116116116116,0.2391087024977028,65,88.12241626924867
14,6.126126126126126,0.2083959103838214,65,88.12241626924867
14,6.136136136136136,0.1584113611546724,65,88.12241626924867
14,6.146146146146146,0.1310117980988418,65,88.12241626924867
14,6.156156156156156,0.0949333416868933,65,88.12241626924867
14,6.166166166166166,0.059809301996508,65,88.12241626924867
14,6.176176176176176,0.0478324206384508,65,88.12241626924867
14,6.186186186186186,0.0264112367084037,65,88.12241626924867
14,6.196196196196196,0.0186109845076788,65,88.12241626924867
14,6.206206206206206,0.0118700501375734,65,88.12241626924867
14,6.216216216216216,0.0106657082332574,65,88.12241626924867
14,6.226226226226226,0.0080500817868988,65,88.12241626924867
14,6.236236236236236,-0.0008982585991282,65,88.12241626924867
14,6.246246246246246,0.0039133761978985,65,88.12241626924867
14,6.256256256256256,0.0011259725896824,65,88.12241626924867
14,6.266266266266266,0.0006151925321897,65,88.12241626924867
14,6.276276276276276,-0.0013007429261207,65,88.12241626924867
14,6.286286286286286,-0.0102379886575275,65,88.12241626924867
14,6.296296296296296,-0.0160715855126018,65,88.12241626924867
14,6.306306306306306,-0.0175723806547199,65,88.12241626924867
14,6.316316316316316,-0.0339650662609184,65,88.12241626924867
14,6.326326326326326,-0.045765428233859,65,88.12241626924867
14,6.336336336336336,-0.0729748356369469,65,88.12241626924867
14,6.346346346346346,-0.1046024567946633,65,88.12241626924867
14,6.356356356356356,-0.1274756104519396,65,88.12241626924867
14,6.366366366366366,-0.1681745069321583,65,88.12241626924867
14,6.376376376376376,-0.2015148454012042,65,88.12241626924867
14,6.386386386386386,-0.2586655719848287,65,88.12241626924867
14,6.396396396396396,-0.2969101093851709,65,88.12241626924867
14,6.406406406406406,-0.3460387596715754,65,88.12241626924867
14,6.416416416416417,-0.3888364225207506,65,88.12241626924867
14,6.426426426426427,-0.4417819112930679,65,88.12241626924867
14,6.436436436436437,-0.4996173747372902,65,88.12241626924867
14,6.446446446446447,-0.5498822278266877,65,88.12241626924867
14,6.456456456456457,-0.5984434955875809,65,88.12241626924867
14,6.466466466466467,-0.6355434056475683,65,88.12241626924867
14,6.476476476476477,-0.6653463822182835,65,88.12241626924867
14,6.486486486486487,-0.7059307981189614,65,88.12241626924867
14,6.496496496496497,-0.7357148430875551,65,88.12241626924867
14,6.506506506506507,-0.7527774451652585,65,88.12241626924867
14,6.516516516516517,-0.7790585430723325,65,88.12241626924867
14,6.526526526526527,-0.7819344924571682,65,88.12241626924867
14,6.536536536536537,-0.7790386946436811,65,88.12241626924867
14,6.546546546546547,-0.7571005525203109,65,88.12241626924867
14,6.556556556556557,-0.7461294040015336,65,88.12241626924867
14,6.566566566566567,-0.7121252881029356,65,88.12241626924867
14,6.576576576576577,-0.6773562783948104,65,88.12241626924867
14,6.586586586586587,-0.6210917047281201,65,88.12241626924867
14,6.596596596596597,-0.5678719872360969,65,88.12241626924867
14,6.606606606606607,-0.4975090981098375,65,88.12241626924867
14,6.616616616616617,-0.4304713683112385,65,88.12241626924867
14,6.626626626626627,-0.3460288429103766,65,88.12241626924867
14,6.636636636636637,-0.2672989234791305,65,88.12241626924867
14,6.646646646646647,-0.1737444245231465,65,88.12241626924867
14,6.656656656656657,-0.0847525373261125,65,88.12241626924867
14,6.666666666666667,-0.0008475487291616,65,88.12241626924867
14,6.676676676676677,0.0938104992899406,65,88.12241626924867
14,6.686686686686687,0.1821235316888971,65,88.12241626924867
14,6.696696696696697,0.2671413716066135,65,88.12241626924867
14,6.706706706706707,0.343832751513183,65,88.12241626924867
14,6.716716716716717,0.430237144356936,65,88.12241626924867
14,6.726726726726727,0.5010728442115723,65,88.12241626924867
14,6.736736736736737,0.5732737201869932,65,88.12241626924867
14,6.746746746746747,0.627057407520276,65,88.12241626924867
14,6.756756756756757,0.6633379938977574,65,88.12241626924867
14,6.766766766766767,0.7036502042261064,65,88.12241626924867
14,6.776776776776777,0.7464056317335317,65,88.12241626924867
14,6.786786786786787,0.7611338588902425,65,88.12241626924867
14,6.796796796796797,0.789955951230342,65,88.12241626924867
14,6.806806806806807,0.7798491061611031,65,88.12241626924867
14,6.816816816816817,0.782401041222386,65,88.12241626924867
14,6.826826826826827,0.7599650869368363,65,88.12241626924867
14,6.836836836836837,0.7425483068560983,65,88.12241626924867
14,6.846846846846847,0.6999211678563044,65,88.12241626924867
14,6.856856856856857,0.6777170927508829,65,88.12241626924867
14,6.866866866866867,0.6421611097346318,65,88.12241626924867
14,6.876876876876877,0.5907888865070867,65,88.12241626924867
14,6.886886886886887,0.5408584685572756,65,88.12241626924867
14,6.896896896896897,0.5043658085021716,65,88.12241626924867
14,6.906906906906907,0.4432013062723317,65,88.12241626924867
14,6.916916916916917,0.3911639941260054,65,88.12241626924867
14,6.926926926926927,0.3408284705912375,65,88.12241626924867
14,6.936936936936937,0.2907456681683749,65,88.12241626924867
14,6.946946946946947,0.244928858535124,65,88.12241626924867
14,6.956956956956957,0.212809614280407,65,88.12241626924867
14,6.966966966966967,0.1760874487531567,65,88.12241626924867
14,6.976976976976977,0.130992042713246,65,88.12241626924867
14,6.986986986986987,0.0963452551202673,65,88.12241626924867
14,6.996996996996997,0.0710840926531898,65,88.12241626924867
14,7.007007007007007,0.0549526032054704,65,88.12241626924867
14,7.017017017017017,0.0376190770006879,65,88.12241626924867
14,7.027027027027027,0.0203358840859285,65,88.12241626924867
14,7.037037037037037,0.0078664864200117,65,88.12241626924867
14,7.047047047047047,-0.0061571879544692,65,88.12241626924867
14,7.057057057057057,-0.0061573283980362,65,88.12241626924867
14,7.067067067067067,-0.0017903007772736,65,88.12241626924867
14,7.077077077077077,0.0050949343500491,65,88.12241626924867
14,7.087087087087087,0.0018777436135692,65,88.12241626924867
14,7.097097097097097,0.0008596421416422,65,88.12241626924867
14,7.107107107107107,0.0086671397847125,65,88.12241626924867
14,7.117117117117117,-0.0002346503843662,65,88.12241626924867
14,7.127127127127127,-0.0145666965573949,65,88.12241626924867
14,7.137137137137137,-0.0189678626461325,65,88.12241626924867
14,7.147147147147147,-0.0299422902601604,65,88.12241626924867
14,7.157157157157157,-0.0479614263085049,65,88.12241626924867
14,7.167167167167167,-0.0663206630944573,65,88.12241626924867
14,7.177177177177177,-0.1043092148636996,65,88.12241626924867
14,7.187187187187187,-0.1165050584279851,65,88.12241626924867
14,7.197197197197197,-0.1509573065319414,65,88.12241626924867
14,7.207207207207207,-0.1929559300802872,65,88.12241626924867
14,7.217217217217217,-0.2371252587374839,65,88.12241626924867
14,7.227227227227227,-0.2926460817777526,65,88.12241626924867
14,7.237237237237237,-0.3268048732158133,65,88.12241626924867
14,7.247247247247247,-0.3755745555412645,65,88.12241626924867
14,7.257257257257257,-0.437465734365318,65,88.12241626924867
14,7.267267267267267,-0.4886095763151794,65,88.12241626924867
14,7.277277277277277,-0.5313351811655029,65,88.12241626924867
14,7.287287287287287,-0.5740674255614211,65,88.12241626924867
14,7.297297297297297,-0.6318869658261739,65,88.12241626924867
14,7.307307307307307,-0.662543353288496,65,88.12241626924867
14,7.317317317317317,-0.7060915117858219,65,88.12241626924867
14,7.327327327327327,-0.7314043480917842,65,88.12241626924867
14,7.337337337337337,-0.7545173438512341,65,88.12241626924867
14,7.347347347347347,-0.7756413798355257,65,88.12241626924867
14,7.357357357357357,-0.7825282427213622,65,88.12241626924867
14,7.367367367367367,-0.7824784455052058,65,88.12241626924867
14,7.377377377377377,-0.7663845322922138,65,88.12241626924867
14,7.387387387387387,-0.7426094350868977,65,88.12241626924867
14,7.397397397397397,-0.7081825618362103,65,88.12241626924867
14,7.407407407407407,-0.6832491734944377,65,88.12241626924867
14,7.4174174174174174,-0.6310828458267891,65,88.12241626924867
14,7.4274274274274275,-0.5855426991866884,65,88.12241626924867
14,7.437437437437437,-0.516267825358639,65,88.12241626924867
14,7.447447447447447,-0.4430733657349609,65,88.12241626924867
14,7.4574574574574575,-0.371110480273337,65,88.12241626924867
14,7.4674674674674675,-0.2938641251833359,65,88.12241626924867
14,7.477477477477477,-0.2022515035698567,65,88.12241626924867
14,7.487487487487487,-0.11415090888248,65,88.12241626924867
14,7.4974974974974975,-0.0294733291034285,65,88.12241626924867
14,7.5075075075075075,0.065137490329,65,88.12241626924867
14,7.517517517517517,0.1562841390685736,65,88.12241626924867
14,7.527527527527527,0.2473664844473115,65,88.12241626924867
14,7.5375375375375375,0.3317524055817475,65,88.12241626924867
14,7.5475475475475475,0.4184583824486275,65,88.12241626924867
14,7.557557557557557,0.4876347470811613,65,88.12241626924867
14,7.567567567567567,0.5429012136533578,65,88.12241626924867
14,7.5775775775775776,0.604517206929486,65,88.12241626924867
14,7.587587587587588,0.6662544615306288,65,88.12241626924867
14,7.597597597597598,0.699429784357774,65,88.12241626924867
14,7.607607607607608,0.7349626813863525,65,88.12241626924867
14,7.617617617617618,0.7484930876916067,65,88.12241626924867
14,7.627627627627628,0.7778466819262415,65,88.12241626924867
14,7.637637637637638,0.7806173350616392,65,88.12241626924867
14,7.647647647647648,0.7685076338271979,65,88.12241626924867
14,7.657657657657658,0.7635847445300151,65,88.12241626924867
14,7.667667667667668,0.740478184563751,65,88.12241626924867
14,7.677677677677678,0.72148372725894,65,88.12241626924867
14,7.687687687687688,0.6908232705381192,65,88.12241626924867
14,7.697697697697698,0.6416278933440056,65,88.12241626924867
14,7.707707707707708,0.6115407729720673,65,88.12241626924867
14,7.717717717717718,0.5513903236254187,65,88.12241626924867
14,7.727727727727728,0.5123389767175955,65,88.12241626924867
14,7.737737737737738,0.4539424855628376,65,88.12241626924867
14,7.747747747747748,0.401285368976953,65,88.12241626924867
14,7.757757757757758,0.36512698073846,65,88.12241626924867
14,7.767767767767768,0.3157214744283498,65,88.12241626924867
14,7.777777777777778,0.2567260042341729,65,88.12241626924867
14,7.787787787787788,0.2164003837744064,65,88.12241626924867
14,7.797797797797798,0.1719518605134064,65,88.12241626924867
14,7.807807807807808,0.1381006611834924,65,88.12241626924867
14,7.817817817817818,0.1090587876883324,65,88.12241626924867
14,7.827827827827828,0.0812132910465678,65,88.12241626924867
14,7.837837837837838,0.0566789468213451,65,88.12241626924867
14,7.847847847847848,0.0332387625537097,65,88.12241626924867
14,7.857857857857858,0.0251720004674616,65,88.12241626924867
14,7.867867867867868,0.0087689358974711,65,88.12241626924867
14,7.877877877877878,0.0023064851732699,65,88.12241626924867
14,7.887887887887888,0.0009424879453515,65,88.12241626924867
14,7.897897897897898,0.0147400265942134,65,88.12241626924867
14,7.907907907907908,0.0016167009224118,65,88.12241626924867
14,7.917917917917918,-0.005551174307799,65,88.12241626924867
14,7.927927927927928,0.0020151271723185,65,88.12241626924867
14,7.937937937937938,-0.0051948505560405,65,88.12241626924867
14,7.947947947947948,-0.007982963972297,65,88.12241626924867
14,7.957957957957958,-0.0062697616547941,65,88.12241626924867
14,7.967967967967968,-0.0204910307641216,65,88.12241626924867
14,7.977977977977978,-0.0387785029442115,65,88.12241626924867
14,7.987987987987988,-0.0361449925894437,65,88.12241626924867
14,7.997997997997998,-0.0604926080974552,65,88.12241626924867
14,8.008008008008009,-0.086336805571658,65,88.12241626924867
14,8.018018018018019,-0.1095424101781472,65,88.12241626924867
14,8.028028028028029,-0.1456695372782759,65,88.12241626924867
14,8.038038038038039,-0.1815574245075838,65,88.12241626924867
14,8.048048048048049,-0.2226633879112096,65,88.12241626924867
14,8.058058058058059,-0.2633751102126825,65,88.12241626924867
14,8.068068068068069,-0.3195131931240854,65,88.12241626924867
14,8.078078078078079,-0.3706589286299886,65,88.12241626924867
14,8.088088088088089,-0.4152898695806878,65,88.12241626924867
14,8.098098098098099,-0.46494385390587,65,88.12241626924867
14,8.108108108108109,-0.5212369460940264,65,88.12241626924867
14,8.118118118118119,-0.5574347861234762,65,88.12241626924867
14,8.128128128128129,-0.6152781378113509,65,88.12241626924867
14,8.138138138138139,-0.6608279830677984,65,88.12241626924867
14,8.148148148148149,-0.6935353369377523,65,88.12241626924867
14,8.158158158158159,-0.7259666730389448,65,88.12241626924867
14,8.168168168168169,-0.7505563723018879,65,88.12241626924867
14,8.178178178178179,-0.7735795743002244,65,88.12241626924867
14,8.188188188188189,-0.7828634933018737,65,88.12241626924867
14,8.198198198198199,-0.7817829157378572,65,88.12241626924867
14,8.208208208208209,-0.7659749297206845,65,88.12241626924867
14,8.218218218218219,-0.7484691159125291,65,88.12241626924867
14,8.228228228228229,-0.7356853902331029,65,88.12241626924867
14,8.238238238238239,-0.6859410889959563,65,88.12241626924867
14,8.248248248248249,-0.6407838806583486,65,88.12241626924867
14,8.258258258258259,-0.5949736815794254,65,88.12241626924867
14,8.268268268268269,-0.5292136829889458,65,88.12241626924867
14,8.278278278278279,-0.4675893340890239,65,88.12241626924867
14,8.288288288288289,-0.3961953485415863,65,88.12241626924867
14,8.298298298298299,-0.2970052504664128,65,88.12241626924867
14,8.308308308308309,-0.2189293817009348,65,88.12241626924867
14,8.318318318318319,-0.1270362544199053,65,88.12241626924867
14,8.328328328328329,-0.0500935534488099,65,88.12241626924867
14,8.338338338338339,0.0449730958107542,65,88.12241626924867
14,8.348348348348349,0.1401508682963869,65,88.12241626924867
14,8.358358358358359,0.2219729223754667,65,88.12241626924867
14,8.368368368368369,0.307823013429613,65,88.12241626924867
14,8.378378378378379,0.391134404988561,65,88.12241626924867
14,8.388388388388389,0.4661281243601975,65,88.12241626924867
14,8.398398398398399,0.5312035141892644,65,88.12241626924867
14,8.408408408408409,0.5889560800609599,65,88.12241626924867
14,8.418418418418419,0.646883011703348,65,88.12241626924867
14,8.428428428428429,0.6875854575495685,65,88.12241626924867
14,8.438438438438439,0.7313493790278515,65,88.12241626924867
14,8.448448448448449,0.7567450481845244,65,88.12241626924867
14,8.458458458458459,0.7770487227281122,65,88.12241626924867
14,8.468468468468469,0.774876704527334,65,88.12241626924867
14,8.478478478478479,0.777248332503733,65,88.12241626924867
14,8.488488488488489,0.7731371277478829,65,88.12241626924867
14,8.498498498498499,0.7478207811637608,65,88.12241626924867
14,8.508508508508509,0.7181393241230164,65,88.12241626924867
14,8.518518518518519,0.6967122842620517,65,88.12241626924867
14,8.528528528528529,0.6598158595392782,65,88.12241626924867
14,8.538538538538539,0.6214241860628827,65,88.12241626924867
14,8.548548548548549,0.5693645607505546,65,88.12241626924867
14,8.558558558558559,0.5115125898138974,65,88.12241626924867
14,8.568568568568569,0.4709420357821923,65,88.12241626924867
14,8.578578578578579,0.4196837725671554,65,88.12241626924867
14,8.588588588588589,0.3772301386155308,65,88.12241626924867
14,8.598598598598599,0.3129300853992572,65,88.12241626924867
14,8.608608608608609,0.2659050357580393,65,88.12241626924867
14,8.618618618618619,0.2279274125363868,65,88.12241626924867
14,8.62862862862863,0.183700159039791,65,88.12241626924867
14,8.63863863863864,0.1458750486783026,65,88.12241626924867
14,8.64864864864865,0.1190054377819523,65,88.12241626924867
14,8.65865865865866,0.0864844059402721,65,88.12241626924867
14,8.66866866866867,0.0675561781855049,65,88.12241626924867
14,8.67867867867868,0.0404039830201693,65,88.12241626924867
14,8.68868868868869,0.0218426744511734,65,88.12241626924867
14,8.6986986986987,0.0174880734406048,65,88.12241626924867
14,8.70870870870871,0.0151066600318384,65,88.12241626924867
14,8.71871871871872,0.0025788178555777,65,88.12241626924867
14,8.72872872872873,0.0026717539923066,65,88.12241626924867
14,8.73873873873874,0.0027759529836983,65,88.12241626924867
14,8.74874874874875,0.0044982016131212,65,88.12241626924867
14,8.75875875875876,-0.0050179525342224,65,88.12241626924867
14,8.76876876876877,0.0048737596455509,65,88.12241626924867
14,8.77877877877878,-0.0039878460066281,65,88.12241626924867
14,8.78878878878879,-0.0038585288002376,65,88.12241626924867
14,8.7987987987988,-0.0142382603175744,65,88.12241626924867
14,8.80880880880881,-0.0314011028745147,65,88.12241626924867
14,8.81881881881882,-0.0378298110307761,65,88.12241626924867
14,8.82882882882883,-0.0551155863373617,65,88.12241626924867
14,8.83883883883884,-0.0762063442190853,65,88.12241626924867
14,8.84884884884885,-0.1097812497987453,65,88.12241626924867
14,8.85885885885886,-0.1378593773822916,65,88.12241626924867
14,8.86886886886887,-0.1693836863554174,65,88.12241626924867
14,8.87887887887888,-0.217968699883434,65,88.12241626924867
14,8.88888888888889,-0.2636541052299022,65,88.12241626924867
14,8.8988988988989,-0.3036218630140013,65,88.12241626924867
14,8.90890890890891,-0.3588225140762123,65,88.12241626924867
14,8.91891891891892,-0.3950149287049673,65,88.12241626924867
14,8.92892892892893,-0.4501912456672466,65,88.12241626924867
14,8.93893893893894,-0.5061092760627032,65,88.12241626924867
14,8.94894894894895,-0.5604207870351579,65,88.12241626924867
14,8.95895895895896,-0.6096844500767528,65,88.12241626924867
14,8.96896896896897,-0.6418793518766878,65,88.12241626924867
14,8.97897897897898,-0.6873782186701041,65,88.12241626924867
14,8.98898898898899,-0.7160774255496678,65,88.12241626924867
14,8.998998998999,-0.7409493660503935,65,88.12241626924867
14,9.00900900900901,-0.7602981927477401,65,88.12241626924867
14,9.01901901901902,-0.7788473124683696,65,88.12241626924867
14,9.02902902902903,-0.7775590609297214,65,88.12241626924867
14,9.03903903903904,-0.7688778090739814,65,88.12241626924867
14,9.04904904904905,-0.7639879643247232,65,88.12241626924867
14,9.05905905905906,-0.7274541545064711,65,88.12241626924867
14,9.06906906906907,-0.6998540398580808,65,88.12241626924867
14,9.07907907907908,-0.6666358249804523,65,88.12241626924867
14,9.08908908908909,-0.6079558642568569,65,88.12241626924867
14,9.0990990990991,-0.5472134111004543,65,88.12241626924867
14,9.10910910910911,-0.4836001742104418,65,88.12241626924867
14,9.11911911911912,-0.418086577640924,65,88.12241626924867
14,9.12912912912913,-0.3289429986531776,65,88.12241626924867
14,9.13913913913914,-0.2529854532186963,65,88.12241626924867
14,9.14914914914915,-0.147262586338133,65,88.12241626924867
14,9.15915915915916,-0.0649783992629381,65,88.12241626924867
14,9.16916916916917,0.022427027669861,65,88.12241626924867
14,9.17917917917918,0.1220705022555667,65,88.12241626924867
14,9.18918918918919,0.2120254742648353,65,88.12241626924867
14,9.1991991991992,0.2968417154814742,65,88.12241626924867
14,9.20920920920921,0.363575898496234,65,88.12241626924867
14,9.21921921921922,0.4431246791029746,65,88.12241626924867
14,9.22922922922923,0.5192710252061272,65,88.12241626924867
14,9.23923923923924,0.5786728146606048,65,88.12241626924867
14,9.24924924924925,0.6466590739712597,65,88.12241626924867
14,9.25925925925926,0.6881478034051397,65,88.12241626924867
14,9.26926926926927,0.7181151595124514,65,88.12241626924867
14,9.27927927927928,0.7429781936004101,65,88.12241626924867
14,9.28928928928929,0.766888229239647,65,88.12241626924867
14,9.2992992992993,0.7827002759036091,65,88.12241626924867
14,9.30930930930931,0.7775360989427491,65,88.12241626924867
14,9.31931931931932,0.7721317597003353,65,88.12241626924867
14,9.32932932932933,0.7555886426956099,65,88.12241626924867
14,9.33933933933934,0.7317586763246589,65,88.12241626924867
14,9.34934934934935,0.6959286361906247,65,88.12241626924867
14,9.35935935935936,0.6576317093226101,65,88.12241626924867
14,9.36936936936937,0.63788348746054,65,88.12241626924867
14,9.37937937937938,0.5770086714329277,65,88.12241626924867
14,9.38938938938939,0.5262147480346001,65,88.12241626924867
14,9.3993993993994,0.4809319215283422,65,88.12241626924867
14,9.40940940940941,0.4299819525797316,65,88.12241626924867
14,9.41941941941942,0.3769397747866285,65,88.12241626924867
14,9.42942942942943,0.3288909612214792,65,88.12241626924867
14,9.43943943943944,0.278548842880454,65,88.12241626924867
14,9.44944944944945,0.240110395461491,65,88.12241626924867
14,9.45945945945946,0.1886976190660277,65,88.12241626924867
14,9.46946946946947,0.1623616318498855,65,88.12241626924867
14,9.47947947947948,0.1234674478164076,65,88.12241626924867
14,9.48948948948949,0.0881000786684603,65,88.12241626924867
14,9.4994994994995,0.0709452073399788,65,88.12241626924867
14,9.50950950950951,0.0549702059957429,65,88.12241626924867
14,9.51951951951952,0.0302756318750303,65,88.12241626924867
14,9.52952952952953,0.0082915416061236,65,88.12241626924867
14,9.53953953953954,0.0222291281655312,65,88.12241626924867
14,9.54954954954955,0.0046379589906731,65,88.12241626924867
14,9.55955955955956,-0.0076119744570282,65,88.12241626924867
14,9.56956956956957,-0.0006746658460298,65,88.12241626924867
14,9.57957957957958,-0.0001327580068321,65,88.12241626924867
14,9.58958958958959,0.0085998304889009,65,88.12241626924867
14,9.5995995995996,0.0046140666898809,65,88.12241626924867
14,9.60960960960961,0.0003243706106406,65,88.12241626924867
14,9.61961961961962,0.0025864207535126,65,88.12241626924867
14,9.62962962962963,-0.0225696099769308,65,88.12241626924867
14,9.63963963963964,-0.0128424764536443,65,88.12241626924867
14,9.64964964964965,-0.0374826640179337,65,88.12241626924867
14,9.65965965965966,-0.0534626414276453,65,88.12241626924867
14,9.66966966966967,-0.082366626340234,65,88.12241626924867
14,9.67967967967968,-0.1010684403241226,65,88.12241626924867
14,9.68968968968969,-0.126159256789682,65,88.12241626924867
14,9.6996996996997,-0.1757242495232533,65,88.12241626924867
14,9.70970970970971,-0.2022259798758348,65,88.12241626924867
14,9.71971971971972,-0.2509185064194534,65,88.12241626924867
14,9.72972972972973,-0.2986446889239083,65,88.12241626924867
14,9.73973973973974,-0.339586939261921,65,88.12241626924867
14,9.74974974974975,-0.3923510425605916,65,88.12241626924867
14,9.75975975975976,-0.4494033547654122,65,88.12241626924867
14,9.76976976976977,-0.4884473643494142,65,88.12241626924867
14,9.77977977977978,-0.5491956214266265,65,88.12241626924867
14,9.78978978978979,-0.5890853792018692,65,88.12241626924867
14,9.7997997997998,-0.6283813652904506,65,88.12241626924867
14,9.80980980980981,-0.6877652112358341,65,88.12241626924867
14,9.81981981981982,-0.7053279311694656,65,88.12241626924867
14,9.82982982982983,-0.7434135633272775,65,88.12241626924867
14,9.83983983983984,-0.762048193304442,65,88.12241626924867
14,9.84984984984985,-0.7733014006866182,65,88.12241626924867
14,9.85985985985986,-0.7771376457366849,65,88.12241626924867
14,9.86986986986987,-0.7776786066365018,65,88.12241626924867
14,9.87987987987988,-0.7718816604939597,65,88.12241626924867
14,9.88988988988989,-0.7443259949995031,65,88.12241626924867
14,9.8998998998999,-0.6962025822241835,65,88.12241626924867
14,9.90990990990991,-0.6698996654531155,65,88.12241626924867
14,9.91991991991992,-0.6230562318488827,65,88.12241626924867
14,9.92992992992993,-0.5568156661942937,65,88.12241626924867
14,9.93993993993994,-0.498266668751339,65,88.12241626924867
14,9.94994994994995,-0.4336630463458694,65,88.12241626924867
14,9.95995995995996,-0.3548728002953113,65,88.12241626924867
14,9.96996996996997,-0.2615287168809331,65,88.12241626924867
14,9.97997997997998,-0.1751063145854699,65,88.12241626924867
14,9.98998998998999,-0.0850916739544653,65,88.12241626924867
14,10.0,0.0012683866168914,65,88.12241626924867
