Subject_ID,Time,PPG,HR,HRV
13,0.0,-0.0063171564835693,86,76.43595810829652
13,0.01001001001001,0.0858988412664947,86,76.43595810829652
13,0.02002002002002,0.1723826955936364,86,76.43595810829652
13,0.03003003003003,0.2706482282654391,86,76.43595810829652
13,0.04004004004004,0.3577905899385934,86,76.43595810829652
13,0.05005005005005,0.4305207687401332,86,76.43595810829652
13,0.06006006006006,0.5093590178548524,86,76.43595810829652
13,0.07007007007007,0.5609178640740506,86,76.43595810829652
13,0.08008008008008,0.6232596382795349,86,76.43595810829652
13,0.09009009009009,0.6683428712952172,86,76.43595810829652
13,0.1001001001001,0.7029615283433764,86,76.43595810829652
13,0.1101101101101101,0.7394116456659698,86,76.43595810829652
13,0.1201201201201201,0.7668231866024414,86,76.43595810829652
13,0.1301301301301301,0.7684691565751279,86,76.43595810829652
13,0.1401401401401401,0.7774759399756439,86,76.43595810829652
13,0.1501501501501501,0.7647419529602683,86,76.43595810829652
13,0.1601601601601601,0.7490411820628706,86,76.43595810829652
13,0.1701701701701701,0.742529937800005,86,76.43595810829652
13,0.1801801801801801,0.7132720225366553,86,76.43595810829652
13,0.1901901901901901,0.6755341877711643,86,76.43595810829652
13,0.2002002002002001,0.6363714463139184,86,76.43595810829652
13,0.2102102102102102,0.5897338974252893,86,76.43595810829652
13,0.2202202202202202,0.5412963308197609,86,76.43595810829652
13,0.2302302302302302,0.4997431390563706,86,76.43595810829652
13,0.2402402402402402,0.4332077925323497,86,76.43595810829652
13,0.2502502502502503,0.4003236228140281,86,76.43595810829652
13,0.2602602602602603,0.3426093107561933,86,76.43595810829652
13,0.2702702702702703,0.2828347679443521,86,76.43595810829652
13,0.2802802802802803,0.2524768756759468,86,76.43595810829652
13,0.2902902902902903,0.2018035955899967,86,76.43595810829652
13,0.3003003003003003,0.1562953501713706,86,76.43595810829652
13,0.3103103103103103,0.1294226042544602,86,76.43595810829652
13,0.3203203203203203,0.1103874165359846,86,76.43595810829652
13,0.3303303303303303,0.0690901564450512,86,76.43595810829652
13,0.3403403403403403,0.0527943770963469,86,76.43595810829652
13,0.3503503503503503,0.0427235388234963,86,76.43595810829652
13,0.3603603603603603,0.0166950354737199,86,76.43595810829652
13,0.3703703703703703,0.0148625740025721,86,76.43595810829652
13,0.3803803803803803,0.0036680285702467,86,76.43595810829652
13,0.3903903903903903,-0.0012574082301877,86,76.43595810829652
13,0.4004004004004003,0.0088371286356269,86,76.43595810829652
13,0.4104104104104104,0.0037250332129791,86,76.43595810829652
13,0.4204204204204204,-0.0019177381660688,86,76.43595810829652
13,0.4304304304304304,0.005069983072628,86,76.43595810829652
13,0.4404404404404404,0.0020939843805506,86,76.43595810829652
13,0.4504504504504504,-0.0143086941973831,86,76.43595810829652
13,0.4604604604604604,-0.0097995687113615,86,76.43595810829652
13,0.4704704704704704,-0.0197591938712278,86,76.43595810829652
13,0.4804804804804805,-0.030427713141416,86,76.43595810829652
13,0.4904904904904905,-0.0538838941498507,86,76.43595810829652
13,0.5005005005005005,-0.072695699721444,86,76.43595810829652
13,0.5105105105105106,-0.1061767527975977,86,76.43595810829652
13,0.5205205205205206,-0.1179938913440259,86,76.43595810829652
13,0.5305305305305306,-0.1565207297703867,86,76.43595810829652
13,0.5405405405405406,-0.1922682062201276,86,76.43595810829652
13,0.5505505505505506,-0.245110608687306,86,76.43595810829652
13,0.5605605605605606,-0.2830033606842826,86,76.43595810829652
13,0.5705705705705706,-0.3221336683651469,86,76.43595810829652
13,0.5805805805805806,-0.3739214419605833,86,76.43595810829652
13,0.5905905905905906,-0.4294834530159666,86,76.43595810829652
13,0.6006006006006006,-0.4885801108112516,86,76.43595810829652
13,0.6106106106106106,-0.5287220581188891,86,76.43595810829652
13,0.6206206206206206,-0.5806456575009094,86,76.43595810829652
13,0.6306306306306306,-0.6268554553481621,86,76.43595810829652
13,0.6406406406406406,-0.6690795901767306,86,76.43595810829652
13,0.6506506506506506,-0.6923598554282924,86,76.43595810829652
13,0.6606606606606606,-0.7298382973303749,86,76.43595810829652
13,0.6706706706706707,-0.7527558842067366,86,76.43595810829652
13,0.6806806806806807,-0.7758476046354685,86,76.43595810829652
13,0.6906906906906907,-0.779037924921726,86,76.43595810829652
13,0.7007007007007007,-0.7728530585518998,86,76.43595810829652
13,0.7107107107107107,-0.7639593553729482,86,76.43595810829652
13,0.7207207207207207,-0.7553805594033214,86,76.43595810829652
13,0.7307307307307307,-0.712446388451937,86,76.43595810829652
13,0.7407407407407407,-0.6796265763419084,86,76.43595810829652
13,0.7507507507507507,-0.6224751897874972,86,76.43595810829652
13,0.7607607607607607,-0.5734645189667446,86,76.43595810829652
13,0.7707707707707707,-0.5240652413553323,86,76.43595810829652
13,0.7807807807807807,-0.448183338177896,86,76.43595810829652
13,0.7907907907907907,-0.3670191609714009,86,76.43595810829652
13,0.8008008008008007,-0.2942590351132038,86,76.43595810829652
13,0.8108108108108109,-0.1996750114665766,86,76.43595810829652
13,0.8208208208208209,-0.1086594695248797,86,76.43595810829652
13,0.8308308308308309,-0.0216046860887083,86,76.43595810829652
13,0.8408408408408409,0.0664255259938084,86,76.43595810829652
13,0.8508508508508509,0.1591740330031912,86,76.43595810829652
13,0.8608608608608609,0.2499579028399852,86,76.43595810829652
13,0.8708708708708709,0.331664628017174,86,76.43595810829652
13,0.8808808808808809,0.4084872738219845,86,76.43595810829652
13,0.8908908908908909,0.4833018253749481,86,76.43595810829652
13,0.9009009009009008,0.5453508067443034,86,76.43595810829652
13,0.9109109109109108,0.6134325702027278,86,76.43595810829652
13,0.9209209209209208,0.6578257706485762,86,76.43595810829652
13,0.9309309309309308,0.6981793104908812,86,76.43595810829652
13,0.9409409409409408,0.7272442931196516,86,76.43595810829652
13,0.950950950950951,0.7496067601937318,86,76.43595810829652
13,0.960960960960961,0.7667827438984192,86,76.43595810829652
13,0.970970970970971,0.7858731025147841,86,76.43595810829652
13,0.980980980980981,0.7797247980502733,86,76.43595810829652
13,0.990990990990991,0.7674691278331399,86,76.43595810829652
13,1.001001001001001,0.742008643424997,86,76.43595810829652
13,1.011011011011011,0.7252487784508248,86,76.43595810829652
13,1.021021021021021,0.6808772765143084,86,76.43595810829652
13,1.031031031031031,0.648900938907252,86,76.43595810829652
13,1.0410410410410411,0.6017796265914239,86,76.43595810829652
13,1.0510510510510511,0.5583527559206919,86,76.43595810829652
13,1.0610610610610611,0.5080086202024751,86,76.43595810829652
13,1.0710710710710711,0.4561451146696793,86,76.43595810829652
13,1.0810810810810811,0.3995780167986416,86,76.43595810829652
13,1.0910910910910911,0.3567078471845685,86,76.43595810829652
13,1.1011011011011012,0.2996087535817411,86,76.43595810829652
13,1.1111111111111112,0.2600457958288393,86,76.43595810829652
13,1.1211211211211212,0.2154423543596222,86,76.43595810829652
13,1.1311311311311312,0.1767835319077494,86,76.43595810829652
13,1.1411411411411412,0.1363378800142421,86,76.43595810829652
13,1.1511511511511512,0.1085080955634589,86,76.43595810829652
13,1.1611611611611612,0.0811513705056044,86,76.43595810829652
13,1.1711711711711712,0.0619341584606396,86,76.43595810829652
13,1.1811811811811812,0.0495990578569713,86,76.43595810829652
13,1.1911911911911912,0.0284862931921898,86,76.43595810829652
13,1.2012012012012012,0.0169423822188151,86,76.43595810829652
13,1.2112112112112112,0.0162148807917801,86,76.43595810829652
13,1.2212212212212212,0.0011274807617067,86,76.43595810829652
13,1.2312312312312312,-0.0061935531928135,86,76.43595810829652
13,1.2412412412412412,0.0079122873089174,86,76.43595810829652
13,1.2512512512512513,0.0051674342340675,86,76.43595810829652
13,1.2612612612612613,-0.0060185020721134,86,76.43595810829652
13,1.2712712712712713,-0.0015296368098007,86,76.43595810829652
13,1.2812812812812813,0.0098632865294986,86,76.43595810829652
13,1.2912912912912913,-0.0038069776258957,86,76.43595810829652
13,1.3013013013013013,-0.0166354799652466,86,76.43595810829652
13,1.3113113113113113,-0.0234610487354983,86,76.43595810829652
13,1.3213213213213213,-0.0346370440076241,86,76.43595810829652
13,1.3313313313313313,-0.0553141943994934,86,76.43595810829652
13,1.3413413413413413,-0.093732284204888,86,76.43595810829652
13,1.351351351351351,-0.1106901813498303,86,76.43595810829652
13,1.361361361361361,-0.155399028268546,86,76.43595810829652
13,1.371371371371371,-0.1930964423769047,86,76.43595810829652
13,1.3813813813813811,-0.2267614042720957,86,76.43595810829652
13,1.3913913913913911,-0.2718577902354046,86,76.43595810829652
13,1.4014014014014011,-0.321956954852316,86,76.43595810829652
13,1.4114114114114114,-0.3652884033727623,86,76.43595810829652
13,1.4214214214214214,-0.4207496069346452,86,76.43595810829652
13,1.4314314314314314,-0.4703962575922191,86,76.43595810829652
13,1.4414414414414414,-0.5166497371767661,86,76.43595810829652
13,1.4514514514514514,-0.5695664643247264,86,76.43595810829652
13,1.4614614614614614,-0.6099845502313908,86,76.43595810829652
13,1.4714714714714714,-0.6585337175490522,86,76.43595810829652
13,1.4814814814814814,-0.687704333650191,86,76.43595810829652
13,1.4914914914914914,-0.7181331651826729,86,76.43595810829652
13,1.5015015015015014,-0.7524607764257132,86,76.43595810829652
13,1.5115115115115114,-0.7678233972961148,86,76.43595810829652
13,1.5215215215215214,-0.7642574797914278,86,76.43595810829652
13,1.5315315315315314,-0.7719955886623894,86,76.43595810829652
13,1.5415415415415414,-0.7771856721891593,86,76.43595810829652
13,1.5515515515515514,-0.7586413795799931,86,76.43595810829652
13,1.5615615615615617,-0.7183034483207169,86,76.43595810829652
13,1.5715715715715717,-0.6865234345395318,86,76.43595810829652
13,1.5815815815815817,-0.6555198002643501,86,76.43595810829652
13,1.5915915915915917,-0.5897008752363831,86,76.43595810829652
13,1.6016016016016017,-0.5264922392776255,86,76.43595810829652
13,1.6116116116116117,-0.4597022278925582,86,76.43595810829652
13,1.6216216216216215,-0.3857861362780169,86,76.43595810829652
13,1.6316316316316315,-0.3136245714154294,86,76.43595810829652
13,1.6416416416416415,-0.2203079204855799,86,76.43595810829652
13,1.6516516516516515,-0.1319057981772303,86,76.43595810829652
13,1.6616616616616615,-0.036974867212886,86,76.43595810829652
13,1.6716716716716715,0.0470183910504269,86,76.43595810829652
13,1.6816816816816818,0.1399853838312569,86,76.43595810829652
13,1.6916916916916918,0.224723372996254,86,76.43595810829652
13,1.7017017017017018,0.3079552302249754,86,76.43595810829652
13,1.7117117117117118,0.3915783259412236,86,76.43595810829652
13,1.7217217217217218,0.4623301817944331,86,76.43595810829652
13,1.7317317317317318,0.5277882556230576,86,76.43595810829652
13,1.7417417417417418,0.5981764619100914,86,76.43595810829652
13,1.7517517517517518,0.6471573808091389,86,76.43595810829652
13,1.7617617617617618,0.6923211033191499,86,76.43595810829652
13,1.7717717717717718,0.7256278554149163,86,76.43595810829652
13,1.7817817817817818,0.7556859962015986,86,76.43595810829652
13,1.7917917917917918,0.7728799236339507,86,76.43595810829652
13,1.8018018018018016,0.7657167125655103,86,76.43595810829652
13,1.811811811811812,0.7724963073997687,86,76.43595810829652
13,1.8218218218218216,0.7674870096403199,86,76.43595810829652
13,1.831831831831832,0.750729915629447,86,76.43595810829652
13,1.8418418418418416,0.723282282258327,86,76.43595810829652
13,1.851851851851852,0.6954287626967371,86,76.43595810829652
13,1.8618618618618616,0.6538468312528855,86,76.43595810829652
13,1.871871871871872,0.6127514097776758,86,76.43595810829652
13,1.8818818818818817,0.5648868317800506,86,76.43595810829652
13,1.891891891891892,0.5258074441887818,86,76.43595810829652
13,1.901901901901902,0.4575092164150778,86,76.43595810829652
13,1.911911911911912,0.413954962458086,86,76.43595810829652
13,1.921921921921922,0.3751042147315981,86,76.43595810829652
13,1.931931931931932,0.3197173561731598,86,76.43595810829652
13,1.941941941941942,0.2689616739682794,86,76.43595810829652
13,1.951951951951952,0.2204869629148312,86,76.43595810829652
13,1.961961961961962,0.1861157437887241,86,76.43595810829652
13,1.971971971971972,0.1514933274026876,86,76.43595810829652
13,1.981981981981982,0.1158266994453174,86,76.43595810829652
13,1.991991991991992,0.0806920125560861,86,76.43595810829652
13,2.002002002002002,0.0731985137581267,86,76.43595810829652
13,2.012012012012012,0.0438969159344442,86,76.43595810829652
13,2.022022022022022,0.0308941059653496,86,76.43595810829652
13,2.032032032032032,0.0115432209001293,86,76.43595810829652
13,2.042042042042042,0.010256851568815,86,76.43595810829652
13,2.052052052052052,0.0013499291092756,86,76.43595810829652
13,2.062062062062062,0.0008201466607773,86,76.43595810829652
13,2.072072072072072,-0.0022541887809568,86,76.43595810829652
13,2.0820820820820822,0.0043043627000568,86,76.43595810829652
13,2.092092092092092,-0.009141734771945,86,76.43595810829652
13,2.1021021021021022,0.0001871889683258,86,76.43595810829652
13,2.112112112112112,-0.0048521466730988,86,76.43595810829652
13,2.1221221221221223,-0.003652923188047,86,76.43595810829652
13,2.1321321321321323,-0.0127971946810495,86,76.43595810829652
13,2.1421421421421423,-0.02289809012652,86,76.43595810829652
13,2.1521521521521523,-0.0449948897905453,86,76.43595810829652
13,2.1621621621621623,-0.0583856121977598,86,76.43595810829652
13,2.1721721721721723,-0.0808944798936955,86,76.43595810829652
13,2.1821821821821823,-0.10831384627708,86,76.43595810829652
13,2.1921921921921923,-0.1448597151491592,86,76.43595810829652
13,2.2022022022022023,-0.186582150621411,86,76.43595810829652
13,2.2122122122122123,-0.2133754663507323,86,76.43595810829652
13,2.2222222222222223,-0.2578888189675248,86,76.43595810829652
13,2.2322322322322323,-0.3128936770929764,86,76.43595810829652
13,2.2422422422422423,-0.3669807587206669,86,76.43595810829652
13,2.2522522522522523,-0.4001960613868577,86,76.43595810829652
13,2.2622622622622623,-0.4648489586757967,86,76.43595810829652
13,2.2722722722722724,-0.5118227250658872,86,76.43595810829652
13,2.2822822822822824,-0.5582948466352174,86,76.43595810829652
13,2.2922922922922924,-0.593250766101458,86,76.43595810829652
13,2.3023023023023024,-0.6465761129715482,86,76.43595810829652
13,2.3123123123123124,-0.6872553221877807,86,76.43595810829652
13,2.3223223223223224,-0.7055812056373223,86,76.43595810829652
13,2.3323323323323324,-0.7452521904459246,86,76.43595810829652
13,2.3423423423423424,-0.7639225480435544,86,76.43595810829652
13,2.3523523523523524,-0.773055097499288,86,76.43595810829652
13,2.3623623623623624,-0.77572066656153,86,76.43595810829652
13,2.3723723723723724,-0.7703006243770614,86,76.43595810829652
13,2.3823823823823824,-0.7634398737505281,86,76.43595810829652
13,2.3923923923923924,-0.7342930415729474,86,76.43595810829652
13,2.4024024024024024,-0.6990534384860334,86,76.43595810829652
13,2.4124124124124124,-0.6530919729883262,86,76.43595810829652
13,2.4224224224224224,-0.6131099206298687,86,76.43595810829652
13,2.4324324324324325,-0.5491634953014061,86,76.43595810829652
13,2.4424424424424425,-0.4804687091922208,86,76.43595810829652
13,2.4524524524524525,-0.4104552626768984,86,76.43595810829652
13,2.4624624624624625,-0.326551956588013,86,76.43595810829652
13,2.4724724724724725,-0.2374685982751863,86,76.43595810829652
13,2.4824824824824825,-0.1517231088082888,86,76.43595810829652
13,2.4924924924924925,-0.061586211112541,86,76.43595810829652
13,2.5025025025025025,0.033856585513802,86,76.43595810829652
13,2.5125125125125125,0.1083327033764038,86,76.43595810829652
13,2.5225225225225225,0.1939563662150249,86,76.43595810829652
13,2.5325325325325325,0.2919975030322357,86,76.43595810829652
13,2.5425425425425425,0.3724002636247819,86,76.43595810829652
13,2.5525525525525525,0.440003504892344,86,76.43595810829652
13,2.5625625625625625,0.515229287777239,86,76.43595810829652
13,2.5725725725725725,0.5782515997207996,86,76.43595810829652
13,2.5825825825825826,0.6331458600228129,86,76.43595810829652
13,2.592592592592593,0.6756844778615074,86,76.43595810829652
13,2.6026026026026026,0.71931567154148,86,76.43595810829652
13,2.612612612612613,0.750563992427541,86,76.43595810829652
13,2.6226226226226226,0.7838822180641304,86,76.43595810829652
13,2.6326326326326326,0.7771005077011358,86,76.43595810829652
13,2.6426426426426426,0.783227096357013,86,76.43595810829652
13,2.6526526526526526,0.7703632468394773,86,76.43595810829652
13,2.6626626626626626,0.7529462267327709,86,76.43595810829652
13,2.6726726726726726,0.7316143166746424,86,76.43595810829652
13,2.6826826826826826,0.7015398623039545,86,76.43595810829652
13,2.6926926926926926,0.6603253949857734,86,76.43595810829652
13,2.702702702702702,0.6255696558584994,86,76.43595810829652
13,2.7127127127127126,0.5891054606392954,86,76.43595810829652
13,2.722722722722722,0.5441952175273523,86,76.43595810829652
13,2.7327327327327327,0.4767390361299953,86,76.43595810829652
13,2.7427427427427427,0.430784213830593,86,76.43595810829652
13,2.7527527527527527,0.3731837314386063,86,76.43595810829652
13,2.7627627627627627,0.3356678280911432,86,76.43595810829652
13,2.7727727727727727,0.2813950099975413,86,76.43595810829652
13,2.7827827827827827,0.2401344042582288,86,76.43595810829652
13,2.7927927927927927,0.2081214818764678,86,76.43595810829652
13,2.8028028028028027,0.1636221836062455,86,76.43595810829652
13,2.8128128128128127,0.1222583922768297,86,76.43595810829652
13,2.8228228228228227,0.0946524221870915,86,76.43595810829652
13,2.8328328328328327,0.0706918615736346,86,76.43595810829652
13,2.8428428428428427,0.0477661287009238,86,76.43595810829652
13,2.8528528528528527,0.0332417637451893,86,76.43595810829652
13,2.8628628628628627,0.0207975490171674,86,76.43595810829652
13,2.8728728728728727,0.0064143445277067,86,76.43595810829652
13,2.8828828828828827,0.0016252954998457,86,76.43595810829652
13,2.8928928928928928,0.0015214584372474,86,76.43595810829652
13,2.9029029029029028,-0.0006717478048156,86,76.43595810829652
13,2.9129129129129128,0.0022769357132092,86,76.43595810829652
13,2.9229229229229228,0.0018524975160377,86,76.43595810829652
13,2.932932932932933,0.0024343670809014,86,76.43595810829652
13,2.942942942942943,0.001379644685781,86,76.43595810829652
13,2.952952952952953,-0.0125815517823528,86,76.43595810829652
13,2.962962962962963,-0.0065635386966776,86,76.43595810829652
13,2.972972972972973,-0.0306757128823465,86,76.43595810829652
13,2.982982982982983,-0.0269577381364452,86,76.43595810829652
13,2.992992992992993,-0.0442341837224498,86,76.43595810829652
13,3.003003003003003,-0.071166715378888,86,76.43595810829652
13,3.013013013013013,-0.1026108029339213,86,76.43595810829652
13,3.023023023023023,-0.1362137676178736,86,76.43595810829652
13,3.033033033033033,-0.1660987500654194,86,76.43595810829652
13,3.043043043043043,-0.2011382533847218,86,76.43595810829652
13,3.053053053053053,-0.2541900324534417,86,76.43595810829652
13,3.063063063063063,-0.2924718717793821,86,76.43595810829652
13,3.073073073073073,-0.3398525619606128,86,76.43595810829652
13,3.083083083083083,-0.3916900933909675,86,76.43595810829652
13,3.093093093093093,-0.4376986659603163,86,76.43595810829652
13,3.103103103103103,-0.5039081196719388,86,76.43595810829652
13,3.113113113113113,-0.5480000556812556,86,76.43595810829652
13,3.123123123123123,-0.5893214404470181,86,76.43595810829652
13,3.133133133133133,-0.6382800724125905,86,76.43595810829652
13,3.143143143143143,-0.6783019718641788,86,76.43595810829652
13,3.153153153153153,-0.7085101781211756,86,76.43595810829652
13,3.163163163163163,-0.7449071519653903,86,76.43595810829652
13,3.173173173173173,-0.7585098600352875,86,76.43595810829652
13,3.183183183183183,-0.7750281280633943,86,76.43595810829652
13,3.193193193193193,-0.7854113023269417,86,76.43595810829652
13,3.203203203203203,-0.7753462474753862,86,76.43595810829652
13,3.2132132132132134,-0.7633264048616133,86,76.43595810829652
13,3.2232232232232234,-0.7413004340208678,86,76.43595810829652
13,3.2332332332332334,-0.7083627597969506,86,76.43595810829652
13,3.2432432432432434,-0.6576597205825397,86,76.43595810829652
13,3.253253253253253,-0.6225440157599069,86,76.43595810829652
13,3.2632632632632634,-0.5711807636435845,86,76.43595810829652
13,3.273273273273273,-0.4936533941726042,86,76.43595810829652
13,3.2832832832832834,-0.4200976287929328,86,76.43595810829652
13,3.293293293293293,-0.3384267197472908,86,76.43595810829652
13,3.3033033033033035,-0.2644519047316578,86,76.43595810829652
13,3.313313313313313,-0.180334963986914,86,76.43595810829652
13,3.3233233233233235,-0.0925852025871361,86,76.43595810829652
13,3.333333333333333,-0.0022602393057533,86,76.43595810829652
13,3.3433433433433435,0.0826385518982703,86,76.43595810829652
13,3.353353353353353,0.1714116993249121,86,76.43595810829652
13,3.3633633633633635,0.2702972963221708,86,76.43595810829652
13,3.373373373373373,0.3434144481032231,86,76.43595810829652
13,3.3833833833833835,0.4177941886950332,86,76.43595810829652
13,3.393393393393393,0.4993648725617379,86,76.43595810829652
13,3.4034034034034035,0.5653787310761383,86,76.43595810829652
13,3.413413413413413,0.6216486375786702,86,76.43595810829652
13,3.4234234234234235,0.67313523696422,86,76.43595810829652
13,3.433433433433433,0.7091115615966866,86,76.43595810829652
13,3.443443443443444,0.7406038306077737,86,76.43595810829652
13,3.4534534534534536,0.7599306477591907,86,76.43595810829652
13,3.463463463463464,0.7785800347082842,86,76.43595810829652
13,3.4734734734734736,0.7760696354002588,86,76.43595810829652
13,3.483483483483484,0.7748874138764886,86,76.43595810829652
13,3.4934934934934936,0.760233130548684,86,76.43595810829652
13,3.503503503503504,0.7462014202418109,86,76.43595810829652
13,3.5135135135135136,0.7006526514400536,86,76.43595810829652
13,3.523523523523524,0.6744914830077754,86,76.43595810829652
13,3.5335335335335336,0.648336557249458,86,76.43595810829652
13,3.543543543543544,0.5939210416601086,86,76.43595810829652
13,3.5535535535535536,0.5407708979897612,86,76.43595810829652
13,3.563563563563564,0.4967778696031908,86,76.43595810829652
13,3.5735735735735736,0.4384343927130369,86,76.43595810829652
13,3.583583583583584,0.3911083527045644,86,76.43595810829652
13,3.5935935935935936,0.3433757994170861,86,76.43595810829652
13,3.603603603603604,0.3020213913733723,86,76.43595810829652
13,3.6136136136136137,0.2378019497508777,86,76.43595810829652
13,3.623623623623624,0.2137777208134207,86,76.43595810829652
13,3.6336336336336337,0.1698093810343584,86,76.43595810829652
13,3.643643643643644,0.1390543857249728,86,76.43595810829652
13,3.6536536536536537,0.098326498794496,86,76.43595810829652
13,3.663663663663664,0.0785065499700928,86,76.43595810829652
13,3.6736736736736737,0.0496353010887162,86,76.43595810829652
13,3.683683683683684,0.0214632665879099,86,76.43595810829652
13,3.6936936936936937,0.0185808832705379,86,76.43595810829652
13,3.703703703703704,0.0126287788871245,86,76.43595810829652
13,3.7137137137137137,0.0042789386191488,86,76.43595810829652
13,3.723723723723724,0.0047844080993331,86,76.43595810829652
13,3.7337337337337337,-0.0017321925687473,86,76.43595810829652
13,3.743743743743744,0.0037586707496581,86,76.43595810829652
13,3.7537537537537538,-0.0073912356088817,86,76.43595810829652
13,3.763763763763764,0.0007315158943293,86,76.43595810829652
13,3.7737737737737738,-0.00136001109185,86,76.43595810829652
13,3.783783783783784,-0.0089871785770555,86,76.43595810829652
13,3.793793793793794,-0.014004833493516,86,76.43595810829652
13,3.803803803803804,-0.0218569374804669,86,76.43595810829652
13,3.813813813813814,-0.0294958312423921,86,76.43595810829652
13,3.823823823823824,-0.0522851436713187,86,76.43595810829652
13,3.833833833833834,-0.0613630287893529,86,76.43595810829652
13,3.843843843843844,-0.0947682690062236,86,76.43595810829652
13,3.853853853853854,-0.1285631670955238,86,76.43595810829652
13,3.863863863863864,-0.1588823581030966,86,76.43595810829652
13,3.873873873873874,-0.1914107356658233,86,76.43595810829652
13,3.883883883883884,-0.2295236568396025,86,76.43595810829652
13,3.893893893893894,-0.2817418983504998,86,76.43595810829652
13,3.903903903903904,-0.3343261549677567,86,76.43595810829652
13,3.913913913913914,-0.3878924561388475,86,76.43595810829652
13,3.923923923923924,-0.42907674686994,86,76.43595810829652
13,3.933933933933934,-0.4949788602095306,86,76.43595810829652
13,3.943943943943944,-0.5254747554851658,86,76.43595810829652
13,3.953953953953954,-0.5781217023107755,86,76.43595810829652
13,3.963963963963964,-0.6310592054748901,86,76.43595810829652
13,3.973973973973974,-0.664298730211794,86,76.43595810829652
13,3.983983983983984,-0.6982508824833294,86,76.43595810829652
13,3.993993993993994,-0.7352105745046565,86,76.43595810829652
13,4.004004004004004,-0.7588360005009074,86,76.43595810829652
13,4.014014014014014,-0.7740369799101403,86,76.43595810829652
13,4.024024024024024,-0.779367955311358,86,76.43595810829652
13,4.034034034034034,-0.7801600860445306,86,76.43595810829652
13,4.044044044044044,-0.7695944170270599,86,76.43595810829652
13,4.054054054054054,-0.7450738356140301,86,76.43595810829652
13,4.064064064064064,-0.7195360430673431,86,76.43595810829652
13,4.074074074074074,-0.6814005911842169,86,76.43595810829652
13,4.084084084084084,-0.6325391537013267,86,76.43595810829652
13,4.094094094094094,-0.5748197555969133,86,76.43595810829652
13,4.104104104104104,-0.511840163613309,86,76.43595810829652
13,4.114114114114114,-0.4532132279748894,86,76.43595810829652
13,4.124124124124124,-0.3640502140747016,86,76.43595810829652
13,4.134134134134134,-0.2863373417106898,86,76.43595810829652
13,4.144144144144144,-0.206016596629678,86,76.43595810829652
13,4.1541541541541545,-0.1024529048007189,86,76.43595810829652
13,4.1641641641641645,-0.0205851468351938,86,76.43595810829652
13,4.174174174174175,0.0747176207560621,86,76.43595810829652
13,4.1841841841841845,0.1611703138539376,86,76.43595810829652
13,4.1941941941941945,0.2373584874355874,86,76.43595810829652
13,4.2042042042042045,0.328435814271801,86,76.43595810829652
13,4.214214214214215,0.4054860370509562,86,76.43595810829652
13,4.2242242242242245,0.4900614121606386,86,76.43595810829652
13,4.2342342342342345,0.5485094112515358,86,76.43595810829652
13,4.2442442442442445,0.6123219843938018,86,76.43595810829652
13,4.254254254254255,0.6552322442408107,86,76.43595810829652
13,4.2642642642642645,0.706962503635665,86,76.43595810829652
13,4.2742742742742745,0.7326792319564192,86,76.43595810829652
13,4.2842842842842845,0.7638194776421008,86,76.43595810829652
13,4.294294294294295,0.7732606907374463,86,76.43595810829652
13,4.3043043043043046,0.7758112090396689,86,76.43595810829652
13,4.314314314314315,0.7767918865594864,86,76.43595810829652
13,4.324324324324325,0.7728338848321403,86,76.43595810829652
13,4.334334334334335,0.7477013469726577,86,76.43595810829652
13,4.344344344344345,0.7240073691972077,86,76.43595810829652
13,4.354354354354355,0.6868561602640051,86,76.43595810829652
13,4.364364364364365,0.6425365763245228,86,76.43595810829652
13,4.374374374374375,0.5988009066957148,86,76.43595810829652
13,4.384384384384385,0.5584928845206237,86,76.43595810829652
13,4.394394394394395,0.5016481086100621,86,76.43595810829652
13,4.404404404404405,0.4597177322989003,86,76.43595810829652
13,4.414414414414415,0.4129584989838311,86,76.43595810829652
13,4.424424424424425,0.3585431083791653,86,76.43595810829652
13,4.434434434434435,0.3114846036177306,86,76.43595810829652
13,4.444444444444445,0.2599602513735394,86,76.43595810829652
13,4.454454454454455,0.2166642961020224,86,76.43595810829652
13,4.464464464464465,0.169436653840149,86,76.43595810829652
13,4.474474474474475,0.1329375955935458,86,76.43595810829652
13,4.484484484484485,0.1063734560899361,86,76.43595810829652
13,4.494494494494495,0.0814274705532489,86,76.43595810829652
13,4.504504504504505,0.0548584771429951,86,76.43595810829652
13,4.514514514514515,0.0423376459883604,86,76.43595810829652
13,4.524524524524525,0.0315694274871496,86,76.43595810829652
13,4.534534534534535,0.0152916104688636,86,76.43595810829652
13,4.544544544544545,0.002894721599274,86,76.43595810829652
13,4.554554554554555,0.006629597084441,86,76.43595810829652
13,4.564564564564565,0.0079177329425397,86,76.43595810829652
13,4.574574574574575,0.0153838444409681,86,76.43595810829652
13,4.584584584584585,0.0046907722100113,86,76.43595810829652
13,4.594594594594595,-0.0061282881058333,86,76.43595810829652
13,4.604604604604605,0.0010169062787152,86,76.43595810829652
13,4.614614614614615,-0.006492810534196,86,76.43595810829652
13,4.624624624624625,-0.003709075698283,86,76.43595810829652
13,4.634634634634635,-0.0195491708332069,86,76.43595810829652
13,4.644644644644645,-0.0296764684235466,86,76.43595810829652
13,4.654654654654655,-0.0463228248306773,86,76.43595810829652
13,4.664664664664665,-0.0577068190409819,86,76.43595810829652
13,4.674674674674675,-0.0833228686688627,86,76.43595810829652
13,4.684684684684685,-0.1135022568261618,86,76.43595810829652
13,4.694694694694695,-0.1503199230149966,86,76.43595810829652
13,4.704704704704705,-0.1865265042636996,86,76.43595810829652
13,4.714714714714715,-0.2323698320002651,86,76.43595810829652
13,4.724724724724725,-0.2666889979808391,86,76.43595810829652
13,4.734734734734735,-0.3164954451983461,86,76.43595810829652
13,4.744744744744745,-0.3695430441823482,86,76.43595810829652
13,4.754754754754755,-0.4122774198449635,86,76.43595810829652
13,4.764764764764765,-0.4718021029743253,86,76.43595810829652
13,4.774774774774775,-0.5178421343930019,86,76.43595810829652
13,4.784784784784785,-0.565614612315272,86,76.43595810829652
13,4.794794794794795,-0.6046562699538061,86,76.43595810829652
13,4.804804804804805,-0.6488408283576683,86,76.43595810829652
13,4.814814814814815,-0.7029326690430331,86,76.43595810829652
13,4.824824824824825,-0.7237926693572405,86,76.43595810829652
13,4.834834834834835,-0.7481414834823261,86,76.43595810829652
13,4.844844844844845,-0.7653629358755983,86,76.43595810829652
13,4.854854854854855,-0.7822203628780814,86,76.43595810829652
13,4.864864864864865,-0.778563320605784,86,76.43595810829652
13,4.874874874874875,-0.7611134530247393,86,76.43595810829652
13,4.884884884884885,-0.7498783279894811,86,76.43595810829652
13,4.894894894894895,-0.7275426791628492,86,76.43595810829652
13,4.904904904904905,-0.6954730339638924,86,76.43595810829652
13,4.914914914914915,-0.6471609202495276,86,76.43595810829652
13,4.924924924924925,-0.5914236118456778,86,76.43595810829652
13,4.934934934934935,-0.5306326884388923,86,76.43595810829652
13,4.944944944944945,-0.4708018186185247,86,76.43595810829652
13,4.954954954954955,-0.384130751766545,86,76.43595810829652
13,4.964964964964965,-0.3017451445684905,86,76.43595810829652
13,4.974974974974975,-0.2153984900486064,86,76.43595810829652
13,4.984984984984985,-0.141898127320372,86,76.43595810829652
13,4.994994994994995,-0.0470198913741936,86,76.43595810829652
13,5.005005005005005,0.0412598561664452,86,76.43595810829652
13,5.015015015015015,0.1362033026791825,86,76.43595810829652
13,5.025025025025025,0.221506349051279,86,76.43595810829652
13,5.035035035035035,0.3115910487446812,86,76.43595810829652
13,5.045045045045045,0.386905205113386,86,76.43595810829652
13,5.055055055055055,0.4596447000407068,86,76.43595810829652
13,5.065065065065065,0.5309009558617047,86,76.43595810829652
13,5.075075075075075,0.5959586461075356,86,76.43595810829652
13,5.085085085085085,0.6471155656957603,86,76.43595810829652
13,5.095095095095095,0.6830267133896023,86,76.43595810829652
13,5.105105105105105,0.7229373871707462,86,76.43595810829652
13,5.115115115115115,0.7496465084428048,86,76.43595810829652
13,5.125125125125125,0.7710836439309213,86,76.43595810829652
13,5.135135135135135,0.7694354694590153,86,76.43595810829652
13,5.145145145145145,0.7788485920945785,86,76.43595810829652
13,5.155155155155155,0.7621971178184733,86,76.43595810829652
13,5.165165165165165,0.7494722992490557,86,76.43595810829652
13,5.175175175175175,0.7200994005918725,86,76.43595810829652
13,5.185185185185185,0.7051593581762505,86,76.43595810829652
13,5.195195195195195,0.6561981588476034,86,76.43595810829652
13,5.205205205205205,0.6110871837398145,86,76.43595810829652
13,5.215215215215215,0.5669147538421769,86,76.43595810829652
13,5.225225225225225,0.5135783066384896,86,76.43595810829652
13,5.235235235235235,0.4624000806229852,86,76.43595810829652
13,5.245245245245245,0.4250322695795373,86,76.43595810829652
13,5.255255255255255,0.3704262624991927,86,76.43595810829652
13,5.265265265265265,0.3181606282079738,86,76.43595810829652
13,5.275275275275275,0.2670442443374378,86,76.43595810829652
13,5.285285285285285,0.2314426227251953,86,76.43595810829652
13,5.295295295295295,0.1894134910086027,86,76.43595810829652
13,5.305305305305305,0.1585456684484497,86,76.43595810829652
13,5.315315315315315,0.127049841833978,86,76.43595810829652
13,5.325325325325325,0.0831363817527349,86,76.43595810829652
13,5.335335335335335,0.06513501284849,86,76.43595810829652
13,5.345345345345345,0.0479419501035577,86,76.43595810829652
13,5.355355355355355,0.0210333086225714,86,76.43595810829652
13,5.365365365365365,0.0180819083592318,86,76.43595810829652
13,5.375375375375375,0.0085353082575616,86,76.43595810829652
13,5.385385385385385,0.0133570740284567,86,76.43595810829652
13,5.395395395395395,0.0024868368195696,86,76.43595810829652
13,5.405405405405405,0.0015840048286979,86,76.43595810829652
13,5.415415415415415,0.0025306575054819,86,76.43595810829652
13,5.425425425425425,0.0024812284104419,86,76.43595810829652
13,5.435435435435435,-0.0042327796807083,86,76.43595810829652
13,5.445445445445445,0.0020916075621937,86,76.43595810829652
13,5.455455455455455,-0.0043083829918126,86,76.43595810829652
13,5.465465465465465,-0.0150916825114914,86,76.43595810829652
13,5.475475475475475,-0.0310012867712561,86,76.43595810829652
13,5.485485485485485,-0.0442687813172892,86,76.43595810829652
13,5.495495495495495,-0.0556388758444655,86,76.43595810829652
13,5.505505505505505,-0.0864353503439092,86,76.43595810829652
13,5.515515515515515,-0.1140885859207871,86,76.43595810829652
13,5.525525525525525,-0.1421020846390965,86,76.43595810829652
13,5.535535535535535,-0.1866808102652432,86,76.43595810829652
13,5.545545545545545,-0.2152392124764042,86,76.43595810829652
13,5.555555555555555,-0.2604274258578147,86,76.43595810829652
13,5.565565565565565,-0.3000712656756524,86,76.43595810829652
13,5.575575575575575,-0.3596436279108089,86,76.43595810829652
13,5.585585585585585,-0.4044343874460336,86,76.43595810829652
13,5.595595595595595,-0.4612463416974022,86,76.43595810829652
13,5.605605605605605,-0.5079230516375678,86,76.43595810829652
13,5.615615615615615,-0.5604273408578399,86,76.43595810829652
13,5.625625625625625,-0.6035326200441121,86,76.43595810829652
13,5.635635635635635,-0.6442382752455793,86,76.43595810829652
13,5.645645645645645,-0.6854653832387445,86,76.43595810829652
13,5.655655655655655,-0.7158106663151717,86,76.43595810829652
13,5.665665665665665,-0.756888161590925,86,76.43595810829652
13,5.675675675675675,-0.764026916867347,86,76.43595810829652
13,5.685685685685685,-0.7743217449739127,86,76.43595810829652
13,5.695695695695696,-0.7821284693942407,86,76.43595810829652
13,5.7057057057057055,-0.7788623281029787,86,76.43595810829652
13,5.715715715715716,-0.7635280674944509,86,76.43595810829652
13,5.7257257257257255,-0.7407758137185061,86,76.43595810829652
13,5.735735735735736,-0.7071014870301064,86,76.43595810829652
13,5.7457457457457455,-0.661533884568345,86,76.43595810829652
13,5.755755755755756,-0.6061763043450947,86,76.43595810829652
13,5.7657657657657655,-0.5473155052191542,86,76.43595810829652
13,5.775775775775776,-0.4793996356575868,86,76.43595810829652
13,5.7857857857857855,-0.4079893067528927,86,76.43595810829652
13,5.795795795795796,-0.3238010001072774,86,76.43595810829652
13,5.8058058058058055,-0.2390394468559054,86,76.43595810829652
13,5.815815815815816,-0.1603213503227298,86,76.43595810829652
13,5.8258258258258255,-0.067984256161269,86,76.43595810829652
13,5.835835835835836,0.017202370462226,86,76.43595810829652
13,5.8458458458458455,0.1211314957883079,86,76.43595810829652
13,5.855855855855856,0.2009319106179495,86,76.43595810829652
13,5.865865865865866,0.2891719064749768,86,76.43595810829652
13,5.875875875875876,0.373731574116007,86,76.43595810829652
13,5.885885885885886,0.4517223653756312,86,76.43595810829652
13,5.895895895895896,0.5193701519476133,86,76.43595810829652
13,5.905905905905906,0.5863933679309756,86,76.43595810829652
13,5.915915915915916,0.6399022909134885,86,76.43595810829652
13,5.925925925925926,0.6889258399390512,86,76.43595810829652
13,5.935935935935936,0.720646932083698,86,76.43595810829652
13,5.945945945945946,0.7471465110097841,86,76.43595810829652
13,5.955955955955956,0.7692436220566352,86,76.43595810829652
13,5.965965965965966,0.7816643114690854,86,76.43595810829652
13,5.975975975975976,0.7798365881860199,86,76.43595810829652
13,5.985985985985986,0.7777991407374221,86,76.43595810829652
13,5.995995995995996,0.7488253077486224,86,76.43595810829652
13,6.006006006006006,0.726472877128203,86,76.43595810829652
13,6.016016016016016,0.7131991861214071,86,76.43595810829652
13,6.026026026026026,0.6641340894679009,86,76.43595810829652
13,6.036036036036036,0.6265086679884206,86,76.43595810829652
13,6.046046046046046,0.580463742727622,86,76.43595810829652
13,6.056056056056056,0.5385459979305429,86,76.43595810829652
13,6.066066066066066,0.4934057758117722,86,76.43595810829652
13,6.076076076076076,0.4342727434661187,86,76.43595810829652
13,6.086086086086086,0.3750331450874286,86,76.43595810829652
13,6.096096096096096,0.3320044941035556,86,76.43595810829652
13,6.106106106106106,0.2833897580701391,86,76.43595810829652
13,6.116116116116116,0.2385127365794656,86,76.43595810829652
13,6.126126126126126,0.1989738680502051,86,76.43595810829652
13,6.136136136136136,0.1520702505292748,86,76.43595810829652
13,6.146146146146146,0.1211288989305779,86,76.43595810829652
13,6.156156156156156,0.0885188034755323,86,76.43595810829652
13,6.166166166166166,0.0704869824178443,86,76.43595810829652
13,6.176176176176176,0.0439862391214725,86,76.43595810829652
13,6.186186186186186,0.0256074529417409,86,76.43595810829652
13,6.196196196196196,0.0169606782830428,86,76.43595810829652
13,6.206206206206206,0.0115642427820478,86,76.43595810829652
13,6.216216216216216,0.000668650408595,86,76.43595810829652
13,6.226226226226226,-0.0028929438989033,86,76.43595810829652
13,6.236236236236236,0.0008013617844695,86,76.43595810829652
13,6.246246246246246,0.0019283164663544,86,76.43595810829652
13,6.256256256256256,-0.0003416581659042,86,76.43595810829652
13,6.266266266266266,0.0054145127142347,86,76.43595810829652
13,6.276276276276276,-0.0005256689072572,86,76.43595810829652
13,6.286286286286286,-0.0008590316288999,86,76.43595810829652
13,6.296296296296296,-0.0056971618210827,86,76.43595810829652
13,6.306306306306306,-0.0136581799860887,86,76.43595810829652
13,6.316316316316316,-0.0367988717241294,86,76.43595810829652
13,6.326326326326326,-0.0468561880200609,86,76.43595810829652
13,6.336336336336336,-0.0722528280588875,86,76.43595810829652
13,6.346346346346346,-0.104043172938205,86,76.43595810829652
13,6.356356356356356,-0.1326367048509828,86,76.43595810829652
13,6.366366366366366,-0.1727221589524111,86,76.43595810829652
13,6.376376376376376,-0.2012895011454631,86,76.43595810829652
13,6.386386386386386,-0.2505387324968679,86,76.43595810829652
13,6.396396396396396,-0.2976626082613865,86,76.43595810829652
13,6.406406406406406,-0.3421086839143681,86,76.43595810829652
13,6.416416416416417,-0.3891186072121623,86,76.43595810829652
13,6.426426426426427,-0.4479999530167329,86,76.43595810829652
13,6.436436436436437,-0.4943809568168193,86,76.43595810829652
13,6.446446446446447,-0.5463211553901829,86,76.43595810829652
13,6.456456456456457,-0.5976773236821648,86,76.43595810829652
13,6.466466466466467,-0.6395237358139212,86,76.43595810829652
13,6.476476476476477,-0.6724588191735151,86,76.43595810829652
13,6.486486486486487,-0.7091115489173686,86,76.43595810829652
13,6.496496496496497,-0.7342888181228341,86,76.43595810829652
13,6.506506506506507,-0.7596484943351659,86,76.43595810829652
13,6.516516516516517,-0.775518293532899,86,76.43595810829652
13,6.526526526526527,-0.7782550148202739,86,76.43595810829652
13,6.536536536536537,-0.7757805851196369,86,76.43595810829652
13,6.546546546546547,-0.7673246857958719,86,76.43595810829652
13,6.556556556556557,-0.7424969109463124,86,76.43595810829652
13,6.566566566566567,-0.7172945019001107,86,76.43595810829652
13,6.576576576576577,-0.6728060981683135,86,76.43595810829652
13,6.586586586586587,-0.6292926594140391,86,76.43595810829652
13,6.596596596596597,-0.5622196328788988,86,76.43595810829652
13,6.606606606606607,-0.4935858078641377,86,76.43595810829652
13,6.616616616616617,-0.4271392030832893,86,76.43595810829652
13,6.626626626626627,-0.3423485299505348,86,76.43595810829652
13,6.636636636636637,-0.2696170059257408,86,76.43595810829652
13,6.646646646646647,-0.1709258044120205,86,76.43595810829652
13,6.656656656656657,-0.090242364191824,86,76.43595810829652
13,6.666666666666667,-0.0024701775664778,86,76.43595810829652
13,6.676676676676677,0.090890342278418,86,76.43595810829652
13,6.686686686686687,0.178962141775775,86,76.43595810829652
13,6.696696696696697,0.2639755420324191,86,76.43595810829652
13,6.706706706706707,0.3475936522330637,86,76.43595810829652
13,6.716716716716717,0.4306438685051195,86,76.43595810829652
13,6.726726726726727,0.498108249865766,86,76.43595810829652
13,6.736736736736737,0.5792626236348113,86,76.43595810829652
13,6.746746746746747,0.6164687837895819,86,76.43595810829652
13,6.756756756756757,0.6671680482478995,86,76.43595810829652
13,6.766766766766767,0.7032037923734498,86,76.43595810829652
13,6.776776776776777,0.7463347171957881,86,76.43595810829652
13,6.786786786786787,0.76259805529041,86,76.43595810829652
13,6.796796796796797,0.7789237918337905,86,76.43595810829652
13,6.806806806806807,0.7789395784100432,86,76.43595810829652
13,6.816816816816817,0.781718758011134,86,76.43595810829652
13,6.826826826826827,0.7591558807306508,86,76.43595810829652
13,6.836836836836837,0.7299940795499226,86,76.43595810829652
13,6.846846846846847,0.7096278270980699,86,76.43595810829652
13,6.856856856856857,0.6741366978672394,86,76.43595810829652
13,6.866866866866867,0.6242325402657759,86,76.43595810829652
13,6.876876876876877,0.5930974369552381,86,76.43595810829652
13,6.886886886886887,0.5413513185061434,86,76.43595810829652
13,6.896896896896897,0.4951585452745405,86,76.43595810829652
13,6.906906906906907,0.4431278580161734,86,76.43595810829652
13,6.916916916916917,0.3977809812609317,86,76.43595810829652
13,6.926926926926927,0.3472963897362681,86,76.43595810829652
13,6.936936936936937,0.295418829126287,86,76.43595810829652
13,6.946946946946947,0.2458552032009062,86,76.43595810829652
13,6.956956956956957,0.2048587349939692,86,76.43595810829652
13,6.966966966966967,0.1721452018200526,86,76.43595810829652
13,6.976976976976977,0.1322891673920706,86,76.43595810829652
13,6.986986986986987,0.0928757849750991,86,76.43595810829652
13,6.996996996996997,0.0683036835874247,86,76.43595810829652
13,7.007007007007007,0.0470681470423827,86,76.43595810829652
13,7.017017017017017,0.034298210969555,86,76.43595810829652
13,7.027027027027027,0.0192428334540753,86,76.43595810829652
13,7.037037037037037,0.0163286121605252,86,76.43595810829652
13,7.047047047047047,0.0065954152030805,86,76.43595810829652
13,7.057057057057057,-0.003675286090677,86,76.43595810829652
13,7.067067067067067,-0.0056306811791524,86,76.43595810829652
13,7.077077077077077,-0.0040045091776971,86,76.43595810829652
13,7.087087087087087,-0.004050940374212,86,76.43595810829652
13,7.097097097097097,0.0022464817886371,86,76.43595810829652
13,7.107107107107107,0.0086606875139086,86,76.43595810829652
13,7.117117117117117,-0.0013731851238844,86,76.43595810829652
13,7.127127127127127,-0.0076642076454421,86,76.43595810829652
13,7.137137137137137,-0.0111269636437528,86,76.43595810829652
13,7.147147147147147,-0.0319329023529585,86,76.43595810829652
13,7.157157157157157,-0.046727350009318,86,76.43595810829652
13,7.167167167167167,-0.0664943018477411,86,76.43595810829652
13,7.177177177177177,-0.0895785882388241,86,76.43595810829652
13,7.187187187187187,-0.1239534290869638,86,76.43595810829652
13,7.197197197197197,-0.1575371359844647,86,76.43595810829652
13,7.207207207207207,-0.1937878471812321,86,76.43595810829652
13,7.217217217217217,-0.2410432172579369,86,76.43595810829652
13,7.227227227227227,-0.2814636588748744,86,76.43595810829652
13,7.237237237237237,-0.3328458954176624,86,76.43595810829652
13,7.247247247247247,-0.3748694343563337,86,76.43595810829652
13,7.257257257257257,-0.4236608015211808,86,76.43595810829652
13,7.267267267267267,-0.4920080630389766,86,76.43595810829652
13,7.277277277277277,-0.5373218902859124,86,76.43595810829652
13,7.287287287287287,-0.5826462859756764,86,76.43595810829652
13,7.297297297297297,-0.6246686054246681,86,76.43595810829652
13,7.307307307307307,-0.6633647715611661,86,76.43595810829652
13,7.317317317317317,-0.6976258549651447,86,76.43595810829652
13,7.327327327327327,-0.7338495086934764,86,76.43595810829652
13,7.337337337337337,-0.757125711881131,86,76.43595810829652
13,7.347347347347347,-0.7742260660798839,86,76.43595810829652
13,7.357357357357357,-0.7880410137655603,86,76.43595810829652
13,7.367367367367367,-0.7744089604325136,86,76.43595810829652
13,7.377377377377377,-0.7619411946926072,86,76.43595810829652
13,7.387387387387387,-0.7500004250197378,86,76.43595810829652
13,7.397397397397397,-0.7161400681185974,86,76.43595810829652
13,7.407407407407407,-0.6792221218418627,86,76.43595810829652
13,7.4174174174174174,-0.6324714128013665,86,76.43595810829652
13,7.4274274274274275,-0.5789919915083322,86,76.43595810829652
13,7.437437437437437,-0.5154216984263574,86,76.43595810829652
13,7.447447447447447,-0.4446344218864123,86,76.43595810829652
13,7.4574574574574575,-0.3614382894926009,86,76.43595810829652
13,7.4674674674674675,-0.286073740465313,86,76.43595810829652
13,7.477477477477477,-0.2051204257346164,86,76.43595810829652
13,7.487487487487487,-0.1093364679227169,86,76.43595810829652
13,7.4974974974974975,-0.0168992378007184,86,76.43595810829652
13,7.5075075075075075,0.0708195326646456,86,76.43595810829652
13,7.517517517517517,0.1613119731305858,86,76.43595810829652
13,7.527527527527527,0.2418836260828349,86,76.43595810829652
13,7.5375375375375375,0.3216463882712736,86,76.43595810829652
13,7.5475475475475475,0.407768391947044,86,76.43595810829652
13,7.557557557557557,0.4868600841681739,86,76.43595810829652
13,7.567567567567567,0.5437352792344146,86,76.43595810829652
13,7.5775775775775776,0.609000169913799,86,76.43595810829652
13,7.587587587587588,0.6651481975283915,86,76.43595810829652
13,7.597597597597598,0.7081191135591193,86,76.43595810829652
13,7.607607607607608,0.7441883283849736,86,76.43595810829652
13,7.617617617617618,0.7620362493911936,86,76.43595810829652
13,7.627627627627628,0.7737648825920803,86,76.43595810829652
13,7.637637637637638,0.7786348378112256,86,76.43595810829652
13,7.647647647647648,0.7801434326717351,86,76.43595810829652
13,7.657657657657658,0.7670959258731563,86,76.43595810829652
13,7.667667667667668,0.7471408159685589,86,76.43595810829652
13,7.677677677677678,0.7177129761912141,86,76.43595810829652
13,7.687687687687688,0.6893105411423062,86,76.43595810829652
13,7.697697697697698,0.6497723943865826,86,76.43595810829652
13,7.707707707707708,0.6067182162078655,86,76.43595810829652
13,7.717717717717718,0.5484842447032081,86,76.43595810829652
13,7.727727727727728,0.5090411314524338,86,76.43595810829652
13,7.737737737737738,0.4609104853872531,86,76.43595810829652
13,7.747747747747748,0.4089543672332003,86,76.43595810829652
13,7.757757757757758,0.3608037986451615,86,76.43595810829652
13,7.767767767767768,0.3024829487531265,86,76.43595810829652
13,7.777777777777778,0.2505005816642249,86,76.43595810829652
13,7.787787787787788,0.2142132296648959,86,76.43595810829652
13,7.797797797797798,0.1756390744495884,86,76.43595810829652
13,7.807807807807808,0.143706768847027,86,76.43595810829652
13,7.817817817817818,0.1042969533860827,86,76.43595810829652
13,7.827827827827828,0.0758006898868144,86,76.43595810829652
13,7.837837837837838,0.0567921798959202,86,76.43595810829652
13,7.847847847847848,0.0419301413558375,86,76.43595810829652
13,7.857857857857858,0.0253421738374139,86,76.43595810829652
13,7.867867867867868,0.016439412928859,86,76.43595810829652
13,7.877877877877878,0.0010611294988784,86,76.43595810829652
13,7.887887887887888,-0.0049675927870944,86,76.43595810829652
13,7.897897897897898,0.0058627509037531,86,76.43595810829652
13,7.907907907907908,0.0005997345682946,86,76.43595810829652
13,7.917917917917918,0.0067098874256609,86,76.43595810829652
13,7.927927927927928,-0.0037093971408293,86,76.43595810829652
13,7.937937937937938,-0.0019831217028292,86,76.43595810829652
13,7.947947947947948,-0.0059515379295327,86,76.43595810829652
13,7.957957957957958,-0.0063115817789766,86,76.43595810829652
13,7.967967967967968,-0.0213989625368518,86,76.43595810829652
13,7.977977977977978,-0.0269697691917575,86,76.43595810829652
13,7.987987987987988,-0.0438181839067117,86,76.43595810829652
13,7.997997997997998,-0.0638333900706281,86,76.43595810829652
13,8.008008008008009,-0.0992631844426875,86,76.43595810829652
13,8.018018018018019,-0.1115272201433363,86,76.43595810829652
13,8.028028028028029,-0.1450270011128192,86,76.43595810829652
13,8.038038038038039,-0.1928184048618202,86,76.43595810829652
13,8.048048048048049,-0.2155172697938026,86,76.43595810829652
13,8.058058058058059,-0.2700594324434144,86,76.43595810829652
13,8.068068068068069,-0.3283510899035298,86,76.43595810829652
13,8.078078078078079,-0.3673190278076583,86,76.43595810829652
13,8.088088088088089,-0.4194440524105413,86,76.43595810829652
13,8.098098098098099,-0.4676665995317561,86,76.43595810829652
13,8.108108108108109,-0.5215495932147509,86,76.43595810829652
13,8.118118118118119,-0.5611126067546974,86,76.43595810829652
13,8.128128128128129,-0.6143802307368047,86,76.43595810829652
13,8.138138138138139,-0.659707329521559,86,76.43595810829652
13,8.148148148148149,-0.6858984483143348,86,76.43595810829652
13,8.158158158158159,-0.7165654027956446,86,76.43595810829652
13,8.168168168168169,-0.756409568358213,86,76.43595810829652
13,8.178178178178179,-0.7707092566138924,86,76.43595810829652
13,8.188188188188189,-0.7801409370996112,86,76.43595810829652
13,8.198198198198199,-0.7753479812908154,86,76.43595810829652
13,8.208208208208209,-0.7819728969161138,86,76.43595810829652
13,8.218218218218219,-0.7540686795572152,86,76.43595810829652
13,8.228228228228229,-0.7208698733335132,86,76.43595810829652
13,8.238238238238239,-0.690043256214173,86,76.43595810829652
13,8.248248248248249,-0.6474223122953903,86,76.43595810829652
13,8.258258258258259,-0.5947586607366947,86,76.43595810829652
13,8.268268268268269,-0.5341628398797396,86,76.43595810829652
13,8.278278278278279,-0.4712363050110956,86,76.43595810829652
13,8.288288288288289,-0.3898384444146966,86,76.43595810829652
13,8.298298298298299,-0.3151927045879981,86,76.43595810829652
13,8.308308308308309,-0.2212534375068969,86,76.43595810829652
13,8.318318318318319,-0.1416566431577658,86,76.43595810829652
13,8.328328328328329,-0.0422663682197956,86,76.43595810829652
13,8.338338338338339,0.0423980018099541,86,76.43595810829652
13,8.348348348348349,0.1391387580313788,86,76.43595810829652
13,8.358358358358359,0.2128045739433216,86,76.43595810829652
13,8.368368368368369,0.3037138710894066,86,76.43595810829652
13,8.378378378378379,0.3949608392370503,86,76.43595810829652
13,8.388388388388389,0.4571008506131482,86,76.43595810829652
13,8.398398398398399,0.5307546611200572,86,76.43595810829652
13,8.408408408408409,0.5952822828654045,86,76.43595810829652
13,8.418418418418419,0.636810103236961,86,76.43595810829652
13,8.428428428428429,0.7047882963898879,86,76.43595810829652
13,8.438438438438439,0.7299363858660827,86,76.43595810829652
13,8.448448448448449,0.7512770409950983,86,76.43595810829652
13,8.458458458458459,0.7763710402697991,86,76.43595810829652
13,8.468468468468469,0.783371620500758,86,76.43595810829652
13,8.478478478478479,0.7848306682914641,86,76.43595810829652
13,8.488488488488489,0.775574892876096,86,76.43595810829652
13,8.498498498498499,0.7478250882097724,86,76.43595810829652
13,8.508508508508509,0.728973947606147,86,76.43595810829652
13,8.518518518518519,0.6935123085885025,86,76.43595810829652
13,8.528528528528529,0.6665596438239847,86,76.43595810829652
13,8.538538538538539,0.6105395846317714,86,76.43595810829652
13,8.548548548548549,0.5603757538941505,86,76.43595810829652
13,8.558558558558559,0.51497028655634,86,76.43595810829652
13,8.568568568568569,0.4635338185022395,86,76.43595810829652
13,8.578578578578579,0.4157387172270252,86,76.43595810829652
13,8.588588588588589,0.3792220909927241,86,76.43595810829652
13,8.598598598598599,0.3133041640044571,86,76.43595810829652
13,8.608608608608609,0.2726751697375519,86,76.43595810829652
13,8.618618618618619,0.2204826298877705,86,76.43595810829652
13,8.62862862862863,0.1849895622912259,86,76.43595810829652
13,8.63863863863864,0.1544061947461921,86,76.43595810829652
13,8.64864864864865,0.1137478704519692,86,76.43595810829652
13,8.65865865865866,0.093455151721891,86,76.43595810829652
13,8.66866866866867,0.0595814521198039,86,76.43595810829652
13,8.67867867867868,0.042987894364562,86,76.43595810829652
13,8.68868868868869,0.0302106615266689,86,76.43595810829652
13,8.6986986986987,0.0297711281207906,86,76.43595810829652
13,8.70870870870871,0.0090734622526999,86,76.43595810829652
13,8.71871871871872,0.0047059226166425,86,76.43595810829652
13,8.72872872872873,-0.0030039186815159,86,76.43595810829652
13,8.73873873873874,0.0009979354460188,86,76.43595810829652
13,8.74874874874875,-0.0021808154296025,86,76.43595810829652
13,8.75875875875876,-0.0067035988927883,86,76.43595810829652
13,8.76876876876877,-0.0015991506354289,86,76.43595810829652
13,8.77877877877878,-0.0059438948186137,86,76.43595810829652
13,8.78878878878879,-0.00361834448939,86,76.43595810829652
13,8.7987987987988,-0.0106296199893032,86,76.43595810829652
13,8.80880880880881,-0.0295063368958353,86,76.43595810829652
13,8.81881881881882,-0.0376865495476683,86,76.43595810829652
13,8.82882882882883,-0.0584380195416534,86,76.43595810829652
13,8.83883883883884,-0.08865234421539,86,76.43595810829652
13,8.84884884884885,-0.105269637482481,86,76.43595810829652
13,8.85885885885886,-0.1435375799009065,86,76.43595810829652
13,8.86886886886887,-0.1736747315925958,86,76.43595810829652
13,8.87887887887888,-0.2180276294256073,86,76.43595810829652
13,8.88888888888889,-0.2544069082189494,86,76.43595810829652
13,8.8988988988989,-0.3103617380264259,86,76.43595810829652
13,8.90890890890891,-0.3534922344845602,86,76.43595810829652
13,8.91891891891892,-0.4141637329359013,86,76.43595810829652
13,8.92892892892893,-0.4643952167401095,86,76.43595810829652
13,8.93893893893894,-0.5089071949216176,86,76.43595810829652
13,8.94894894894895,-0.5544123248768519,86,76.43595810829652
13,8.95895895895896,-0.6081036545776666,86,76.43595810829652
13,8.96896896896897,-0.6495833209441972,86,76.43595810829652
13,8.97897897897898,-0.6741474296733471,86,76.43595810829652
13,8.98898898898899,-0.7212158539921987,86,76.43595810829652
13,8.998998998999,-0.7457519137588555,86,76.43595810829652
13,9.00900900900901,-0.7720898201680509,86,76.43595810829652
13,9.01901901901902,-0.7640882013959689,86,76.43595810829652
13,9.02902902902903,-0.7794697171977063,86,76.43595810829652
13,9.03903903903904,-0.7677367281536794,86,76.43595810829652
13,9.04904904904905,-0.7562927676105067,86,76.43595810829652
13,9.05905905905906,-0.7296111097614624,86,76.43595810829652
13,9.06906906906907,-0.7046199017212676,86,76.43595810829652
13,9.07907907907908,-0.6601805354115933,86,76.43595810829652
13,9.08908908908909,-0.5987848476484636,86,76.43595810829652
13,9.0990990990991,-0.5445828658372462,86,76.43595810829652
13,9.10910910910911,-0.4772693687973357,86,76.43595810829652
13,9.11911911911912,-0.4059038621154243,86,76.43595810829652
13,9.12912912912913,-0.3329153328708129,86,76.43595810829652
13,9.13913913913914,-0.2434006338730458,86,76.43595810829652
13,9.14914914914915,-0.1670713651273177,86,76.43595810829652
13,9.15915915915916,-0.057312090777434,86,76.43595810829652
13,9.16916916916917,0.020107933124073,86,76.43595810829652
13,9.17917917917918,0.1197399414667469,86,76.43595810829652
13,9.18918918918919,0.1918635458766361,86,76.43595810829652
13,9.1991991991992,0.2905113960077374,86,76.43595810829652
13,9.20920920920921,0.3657040161204479,86,76.43595810829652
13,9.21921921921922,0.4456083884709575,86,76.43595810829652
13,9.22922922922923,0.5178050197392899,86,76.43595810829652
13,9.23923923923924,0.5726122205271141,86,76.43595810829652
13,9.24924924924925,0.6370823037505734,86,76.43595810829652
13,9.25925925925926,0.6840467230148026,86,76.43595810829652
13,9.26926926926927,0.7239918396472557,86,76.43595810829652
13,9.27927927927928,0.7527039342951894,86,76.43595810829652
13,9.28928928928929,0.772800902150714,86,76.43595810829652
13,9.2992992992993,0.782046155896561,86,76.43595810829652
13,9.30930930930931,0.7786251347238711,86,76.43595810829652
13,9.31931931931932,0.7784414958967845,86,76.43595810829652
13,9.32932932932933,0.7536915147146394,86,76.43595810829652
13,9.33933933933934,0.7365795609365277,86,76.43595810829652
13,9.34934934934935,0.7033011494302771,86,76.43595810829652
13,9.35935935935936,0.6718181987381151,86,76.43595810829652
13,9.36936936936937,0.6158089666292796,86,76.43595810829652
13,9.37937937937938,0.5755764771947709,86,76.43595810829652
13,9.38938938938939,0.5386054728847239,86,76.43595810829652
13,9.3993993993994,0.4697082354256182,86,76.43595810829652
13,9.40940940940941,0.4351053684616773,86,76.43595810829652
13,9.41941941941942,0.3796684883194954,86,76.43595810829652
13,9.42942942942943,0.3394934907640204,86,76.43595810829652
13,9.43943943943944,0.2788218219656276,86,76.43595810829652
13,9.44944944944945,0.2362939594415378,86,76.43595810829652
13,9.45945945945946,0.1919103345355832,86,76.43595810829652
13,9.46946946946947,0.1512482633067301,86,76.43595810829652
13,9.47947947947948,0.117965969230407,86,76.43595810829652
13,9.48948948948949,0.0973690177864108,86,76.43595810829652
13,9.4994994994995,0.0691284947306564,86,76.43595810829652
13,9.50950950950951,0.042842309941406,86,76.43595810829652
13,9.51951951951952,0.0326054026753386,86,76.43595810829652
13,9.52952952952953,0.0166687487298649,86,76.43595810829652
13,9.53953953953954,0.0120994712576816,86,76.43595810829652
13,9.54954954954955,-0.0024041194511708,86,76.43595810829652
13,9.55955955955956,0.0038227481621744,86,76.43595810829652
13,9.56956956956957,-0.0067041052610794,86,76.43595810829652
13,9.57957957957958,-0.0012770866342139,86,76.43595810829652
13,9.58958958958959,0.0059239616391026,86,76.43595810829652
13,9.5995995995996,0.0014900978600053,86,76.43595810829652
13,9.60960960960961,0.0035536537661527,86,76.43595810829652
13,9.61961961961962,-0.0103817764849244,86,76.43595810829652
13,9.62962962962963,-0.0091668248632107,86,76.43595810829652
13,9.63963963963964,-0.0268463271758953,86,76.43595810829652
13,9.64964964964965,-0.0315047750783155,86,76.43595810829652
13,9.65965965965966,-0.0476417389686091,86,76.43595810829652
13,9.66966966966967,-0.0845068516895777,86,76.43595810829652
13,9.67967967967968,-0.0971471485697559,86,76.43595810829652
13,9.68968968968969,-0.132296488245263,86,76.43595810829652
13,9.6996996996997,-0.1704009904532695,86,76.43595810829652
13,9.70970970970971,-0.2026811402566083,86,76.43595810829652
13,9.71971971971972,-0.248042464054029,86,76.43595810829652
13,9.72972972972973,-0.2923831095041363,86,76.43595810829652
13,9.73973973973974,-0.3516735810258183,86,76.43595810829652
13,9.74974974974975,-0.3951497101548626,86,76.43595810829652
13,9.75975975975976,-0.446335427825425,86,76.43595810829652
13,9.76976976976977,-0.5067839539621081,86,76.43595810829652
13,9.77977977977978,-0.5422824229299158,86,76.43595810829652
13,9.78978978978979,-0.5914986699803065,86,76.43595810829652
13,9.7997997997998,-0.6424418115912044,86,76.43595810829652
13,9.80980980980981,-0.6719866472549029,86,76.43595810829652
13,9.81981981981982,-0.7115371222811147,86,76.43595810829652
13,9.82982982982983,-0.7394943349075723,86,76.43595810829652
13,9.83983983983984,-0.7682152934124569,86,76.43595810829652
13,9.84984984984985,-0.774228255847169,86,76.43595810829652
13,9.85985985985986,-0.784604602656322,86,76.43595810829652
13,9.86986986986987,-0.7850135657501587,86,76.43595810829652
13,9.87987987987988,-0.7635236945717758,86,76.43595810829652
13,9.88988988988989,-0.7412635811164588,86,76.43595810829652
13,9.8998998998999,-0.7162761857033754,86,76.43595810829652
13,9.90990990990991,-0.6698212863401249,86,76.43595810829652
13,9.91991991991992,-0.6264703449257569,86,76.43595810829652
13,9.92992992992993,-0.5566068375521469,86,76.43595810829652
13,9.93993993993994,-0.4942150825716265,86,76.43595810829652
13,9.94994994994995,-0.4287264363556317,86,76.43595810829652
13,9.95995995995996,-0.3507632125807727,86,76.43595810829652
13,9.96996996996997,-0.2671337338068021,86,76.43595810829652
13,9.97997997997998,-0.176008173347049,86,76.43595810829652
13,9.98998998998999,-0.0945737714825098,86,76.43595810829652
13,10.0,0.004606607487176,86,76.43595810829652
