Subject_ID,Time,PPG,HR,HRV
6,0.0,-0.0010398240820412,75,31.858181044319824
6,0.01001001001001,0.0895385421989219,75,31.858181044319824
6,0.02002002002002,0.1795398798490512,75,31.858181044319824
6,0.03003003003003,0.2630159168920596,75,31.858181044319824
6,0.04004004004004,0.3459924180900703,75,31.858181044319824
6,0.05005005005005,0.4208263840966773,75,31.858181044319824
6,0.06006006006006,0.4988841674380395,75,31.858181044319824
6,0.07007007007007,0.5728047947841183,75,31.858181044319824
6,0.08008008008008,0.6327445581798355,75,31.858181044319824
6,0.09009009009009,0.6715901470130414,75,31.858181044319824
6,0.1001001001001,0.7074798769867637,75,31.858181044319824
6,0.1101101101101101,0.7400474676180183,75,31.858181044319824
6,0.1201201201201201,0.7647834025115463,75,31.858181044319824
6,0.1301301301301301,0.768753339832645,75,31.858181044319824
6,0.1401401401401401,0.772051454757919,75,31.858181044319824
6,0.1501501501501501,0.7778978769180642,75,31.858181044319824
6,0.1601601601601601,0.7652989320651802,75,31.858181044319824
6,0.1701701701701701,0.7405472609994563,75,31.858181044319824
6,0.1801801801801801,0.7176099642578306,75,31.858181044319824
6,0.1901901901901901,0.6778283217447305,75,31.858181044319824
6,0.2002002002002001,0.6352806917365991,75,31.858181044319824
6,0.2102102102102102,0.5906701603037722,75,31.858181044319824
6,0.2202202202202202,0.5451067027208684,75,31.858181044319824
6,0.2302302302302302,0.4978302669880814,75,31.858181044319824
6,0.2402402402402402,0.4407226235532108,75,31.858181044319824
6,0.2502502502502503,0.3928302778826256,75,31.858181044319824
6,0.2602602602602603,0.3337524347516746,75,31.858181044319824
6,0.2702702702702703,0.2868281932632215,75,31.858181044319824
6,0.2802802802802803,0.255173986218859,75,31.858181044319824
6,0.2902902902902903,0.2030657661399267,75,31.858181044319824
6,0.3003003003003003,0.1589082493854614,75,31.858181044319824
6,0.3103103103103103,0.1288544776385876,75,31.858181044319824
6,0.3203203203203203,0.1054786498062572,75,31.858181044319824
6,0.3303303303303303,0.0766083478609554,75,31.858181044319824
6,0.3403403403403403,0.0553806105109194,75,31.858181044319824
6,0.3503503503503503,0.0441074040792998,75,31.858181044319824
6,0.3603603603603603,0.0138849965407752,75,31.858181044319824
6,0.3703703703703703,0.01263216734018,75,31.858181044319824
6,0.3803803803803803,0.0137569313871733,75,31.858181044319824
6,0.3903903903903903,-0.0003746029716032,75,31.858181044319824
6,0.4004004004004003,0.0022272077477615,75,31.858181044319824
6,0.4104104104104104,0.0001768922449383,75,31.858181044319824
6,0.4204204204204204,0.0062952330186779,75,31.858181044319824
6,0.4304304304304304,0.004488898367998,75,31.858181044319824
6,0.4404404404404404,-0.0034993922339156,75,31.858181044319824
6,0.4504504504504504,-0.0012218121607744,75,31.858181044319824
6,0.4604604604604604,-0.0151115252035744,75,31.858181044319824
6,0.4704704704704704,-0.0156436628201775,75,31.858181044319824
6,0.4804804804804805,-0.0352421241441101,75,31.858181044319824
6,0.4904904904904905,-0.0419792927073041,75,31.858181044319824
6,0.5005005005005005,-0.0761773805939507,75,31.858181044319824
6,0.5105105105105106,-0.0887118561347598,75,31.858181044319824
6,0.5205205205205206,-0.120103297887474,75,31.858181044319824
6,0.5305305305305306,-0.1654802618061809,75,31.858181044319824
6,0.5405405405405406,-0.1969617431321554,75,31.858181044319824
6,0.5505505505505506,-0.236371943397596,75,31.858181044319824
6,0.5605605605605606,-0.2820696773964802,75,31.858181044319824
6,0.5705705705705706,-0.3262605543415939,75,31.858181044319824
6,0.5805805805805806,-0.3846459283445773,75,31.858181044319824
6,0.5905905905905906,-0.4250310366666072,75,31.858181044319824
6,0.6006006006006006,-0.4866743798615529,75,31.858181044319824
6,0.6106106106106106,-0.5346404884475742,75,31.858181044319824
6,0.6206206206206206,-0.5862590068601032,75,31.858181044319824
6,0.6306306306306306,-0.6236633344857,75,31.858181044319824
6,0.6406406406406406,-0.6583170190041433,75,31.858181044319824
6,0.6506506506506506,-0.7096411600549445,75,31.858181044319824
6,0.6606606606606606,-0.7270331621349758,75,31.858181044319824
6,0.6706706706706707,-0.7394643768521788,75,31.858181044319824
6,0.6806806806806807,-0.767406081376914,75,31.858181044319824
6,0.6906906906906907,-0.7740434666851408,75,31.858181044319824
6,0.7007007007007007,-0.7685069987735773,75,31.858181044319824
6,0.7107107107107107,-0.759507801765346,75,31.858181044319824
6,0.7207207207207207,-0.7484381345670549,75,31.858181044319824
6,0.7307307307307307,-0.7258717831064757,75,31.858181044319824
6,0.7407407407407407,-0.6752975032189834,75,31.858181044319824
6,0.7507507507507507,-0.6343737842918975,75,31.858181044319824
6,0.7607607607607607,-0.5882637812569912,75,31.858181044319824
6,0.7707707707707707,-0.5124668236614037,75,31.858181044319824
6,0.7807807807807807,-0.4472122360496059,75,31.858181044319824
6,0.7907907907907907,-0.3622660559686658,75,31.858181044319824
6,0.8008008008008007,-0.2903621448003184,75,31.858181044319824
6,0.8108108108108109,-0.2019478461775095,75,31.858181044319824
6,0.8208208208208209,-0.1133323455506232,75,31.858181044319824
6,0.8308308308308309,-0.0214166894133806,75,31.858181044319824
6,0.8408408408408409,0.0656888413533033,75,31.858181044319824
6,0.8508508508508509,0.1570251496977373,75,31.858181044319824
6,0.8608608608608609,0.2389716103431404,75,31.858181044319824
6,0.8708708708708709,0.3264464143767458,75,31.858181044319824
6,0.8808808808808809,0.4162751138755606,75,31.858181044319824
6,0.8908908908908909,0.4784728453474414,75,31.858181044319824
6,0.9009009009009008,0.5569964402802714,75,31.858181044319824
6,0.9109109109109108,0.6055219353518003,75,31.858181044319824
6,0.9209209209209208,0.6535213188594173,75,31.858181044319824
6,0.9309309309309308,0.6961139489350893,75,31.858181044319824
6,0.9409409409409408,0.7300169582792481,75,31.858181044319824
6,0.950950950950951,0.7574032570487774,75,31.858181044319824
6,0.960960960960961,0.7801095434206416,75,31.858181044319824
6,0.970970970970971,0.7785954868795962,75,31.858181044319824
6,0.980980980980981,0.7753426386223692,75,31.858181044319824
6,0.990990990990991,0.7686076671157225,75,31.858181044319824
6,1.001001001001001,0.745691959611884,75,31.858181044319824
6,1.011011011011011,0.721486935453606,75,31.858181044319824
6,1.021021021021021,0.6806270001657523,75,31.858181044319824
6,1.031031031031031,0.6437638510662422,75,31.858181044319824
6,1.0410410410410411,0.6006135759976722,75,31.858181044319824
6,1.0510510510510511,0.5542106148298204,75,31.858181044319824
6,1.0610610610610611,0.5126165150427844,75,31.858181044319824
6,1.0710710710710711,0.4637426605732408,75,31.858181044319824
6,1.0810810810810811,0.4033744447185614,75,31.858181044319824
6,1.0910910910910911,0.3555154379637688,75,31.858181044319824
6,1.1011011011011012,0.3087574970724608,75,31.858181044319824
6,1.1111111111111112,0.2654725410890344,75,31.858181044319824
6,1.1211211211211212,0.2299715395854292,75,31.858181044319824
6,1.1311311311311312,0.1791058468719533,75,31.858181044319824
6,1.1411411411411412,0.1352838666154738,75,31.858181044319824
6,1.1511511511511512,0.1051194758797408,75,31.858181044319824
6,1.1611611611611612,0.0729809551968495,75,31.858181044319824
6,1.1711711711711712,0.0634375828653488,75,31.858181044319824
6,1.1811811811811812,0.0354923804712331,75,31.858181044319824
6,1.1911911911911912,0.0231514744714821,75,31.858181044319824
6,1.2012012012012012,0.0134338195084282,75,31.858181044319824
6,1.2112112112112112,0.0185553329144137,75,31.858181044319824
6,1.2212212212212212,0.0025227312551071,75,31.858181044319824
6,1.2312312312312312,0.0017525042390072,75,31.858181044319824
6,1.2412412412412412,0.0052291299226484,75,31.858181044319824
6,1.2512512512512513,0.0021015090003568,75,31.858181044319824
6,1.2612612612612613,0.0007749614414003,75,31.858181044319824
6,1.2712712712712713,0.0022478083360889,75,31.858181044319824
6,1.2812812812812813,0.0021501595253718,75,31.858181044319824
6,1.2912912912912913,-0.0059486895583763,75,31.858181044319824
6,1.3013013013013013,-0.0225672549956486,75,31.858181044319824
6,1.3113113113113113,-0.0162801686455213,75,31.858181044319824
6,1.3213213213213213,-0.0439563452460268,75,31.858181044319824
6,1.3313313313313313,-0.0516235580705117,75,31.858181044319824
6,1.3413413413413413,-0.0832677580146075,75,31.858181044319824
6,1.351351351351351,-0.1164553107363133,75,31.858181044319824
6,1.361361361361361,-0.1493105397843053,75,31.858181044319824
6,1.371371371371371,-0.1921845158291568,75,31.858181044319824
6,1.3813813813813811,-0.2199975069393787,75,31.858181044319824
6,1.3913913913913911,-0.2673851223922066,75,31.858181044319824
6,1.4014014014014011,-0.3254003837020843,75,31.858181044319824
6,1.4114114114114114,-0.3714812298336851,75,31.858181044319824
6,1.4214214214214214,-0.4203859680009092,75,31.858181044319824
6,1.4314314314314314,-0.4610678200068647,75,31.858181044319824
6,1.4414414414414414,-0.5224731820300821,75,31.858181044319824
6,1.4514514514514514,-0.5699620357478539,75,31.858181044319824
6,1.4614614614614614,-0.6173316021556075,75,31.858181044319824
6,1.4714714714714714,-0.6502015977498397,75,31.858181044319824
6,1.4814814814814814,-0.6926067607156747,75,31.858181044319824
6,1.4914914914914914,-0.7270234314173878,75,31.858181044319824
6,1.5015015015015014,-0.749450416286709,75,31.858181044319824
6,1.5115115115115114,-0.7753530027979055,75,31.858181044319824
6,1.5215215215215214,-0.7825956475217527,75,31.858181044319824
6,1.5315315315315314,-0.7786703693413239,75,31.858181044319824
6,1.5415415415415414,-0.770170980364091,75,31.858181044319824
6,1.5515515515515514,-0.7533153849763704,75,31.858181044319824
6,1.5615615615615617,-0.7231186004194579,75,31.858181044319824
6,1.5715715715715717,-0.6921443109485409,75,31.858181044319824
6,1.5815815815815817,-0.6423983147587744,75,31.858181044319824
6,1.5915915915915917,-0.5917197885148373,75,31.858181044319824
6,1.6016016016016017,-0.5378977587495453,75,31.858181044319824
6,1.6116116116116117,-0.4616577079531943,75,31.858181044319824
6,1.6216216216216215,-0.3887860767837018,75,31.858181044319824
6,1.6316316316316315,-0.304367404701938,75,31.858181044319824
6,1.6416416416416415,-0.221450935261146,75,31.858181044319824
6,1.6516516516516515,-0.135152487528236,75,31.858181044319824
6,1.6616616616616615,-0.0397054148889516,75,31.858181044319824
6,1.6716716716716715,0.0493132272671751,75,31.858181044319824
6,1.6816816816816818,0.1385761817809744,75,31.858181044319824
6,1.6916916916916918,0.2241891110583643,75,31.858181044319824
6,1.7017017017017018,0.3059965378935241,75,31.858181044319824
6,1.7117117117117118,0.390605303236761,75,31.858181044319824
6,1.7217217217217218,0.4621444489303666,75,31.858181044319824
6,1.7317317317317318,0.5248247927172752,75,31.858181044319824
6,1.7417417417417418,0.5867104701555196,75,31.858181044319824
6,1.7517517517517518,0.6527269314186306,75,31.858181044319824
6,1.7617617617617618,0.6917360344891876,75,31.858181044319824
6,1.7717717717717718,0.7241408551993405,75,31.858181044319824
6,1.7817817817817818,0.749339381746793,75,31.858181044319824
6,1.7917917917917918,0.7617713694730976,75,31.858181044319824
6,1.8018018018018016,0.7773425358336024,75,31.858181044319824
6,1.811811811811812,0.7672577462079229,75,31.858181044319824
6,1.8218218218218216,0.7663172724389465,75,31.858181044319824
6,1.831831831831832,0.7452335008762571,75,31.858181044319824
6,1.8418418418418416,0.7232602584681713,75,31.858181044319824
6,1.851851851851852,0.6918172703637698,75,31.858181044319824
6,1.8618618618618616,0.6601874261562134,75,31.858181044319824
6,1.871871871871872,0.6138996121955942,75,31.858181044319824
6,1.8818818818818817,0.5749852418573232,75,31.858181044319824
6,1.891891891891892,0.5207195994178748,75,31.858181044319824
6,1.901901901901902,0.4706961013260433,75,31.858181044319824
6,1.911911911911912,0.4106351352252262,75,31.858181044319824
6,1.921921921921922,0.3662347577176358,75,31.858181044319824
6,1.931931931931932,0.3144801002029715,75,31.858181044319824
6,1.941941941941942,0.2717012220103106,75,31.858181044319824
6,1.951951951951952,0.2261285149441723,75,31.858181044319824
6,1.961961961961962,0.1901276231593907,75,31.858181044319824
6,1.971971971971972,0.1456839861725344,75,31.858181044319824
6,1.981981981981982,0.1140316055876664,75,31.858181044319824
6,1.991991991991992,0.0786547187722042,75,31.858181044319824
6,2.002002002002002,0.0630589046912236,75,31.858181044319824
6,2.012012012012012,0.0418646081482906,75,31.858181044319824
6,2.022022022022022,0.0230315956366835,75,31.858181044319824
6,2.032032032032032,0.0229023192915491,75,31.858181044319824
6,2.042042042042042,0.0109158246230655,75,31.858181044319824
6,2.052052052052052,0.0081759623911139,75,31.858181044319824
6,2.062062062062062,0.0029575702243384,75,31.858181044319824
6,2.072072072072072,-0.0053386123776543,75,31.858181044319824
6,2.0820820820820822,0.0080234084283272,75,31.858181044319824
6,2.092092092092092,-0.0016217539578554,75,31.858181044319824
6,2.1021021021021022,-0.0069414554136567,75,31.858181044319824
6,2.112112112112112,-3.688190437520743e-05,75,31.858181044319824
6,2.1221221221221223,-0.0090198483392895,75,31.858181044319824
6,2.1321321321321323,-0.0142261535767698,75,31.858181044319824
6,2.1421421421421423,-0.0207512302784704,75,31.858181044319824
6,2.1521521521521523,-0.0356260752824362,75,31.858181044319824
6,2.1621621621621623,-0.0593413113682672,75,31.858181044319824
6,2.1721721721721723,-0.088252068445289,75,31.858181044319824
6,2.1821821821821823,-0.1056609136916316,75,31.858181044319824
6,2.1921921921921923,-0.1319972332675093,75,31.858181044319824
6,2.2022022022022023,-0.1708939482732388,75,31.858181044319824
6,2.2122122122122123,-0.2259681817534795,75,31.858181044319824
6,2.2222222222222223,-0.2571034537425135,75,31.858181044319824
6,2.2322322322322323,-0.3185280515368112,75,31.858181044319824
6,2.2422422422422423,-0.3528110763456386,75,31.858181044319824
6,2.2522522522522523,-0.3993282112433957,75,31.858181044319824
6,2.2622622622622623,-0.4487891348202229,75,31.858181044319824
6,2.2722722722722724,-0.5090949942506173,75,31.858181044319824
6,2.2822822822822824,-0.559264393336595,75,31.858181044319824
6,2.2922922922922924,-0.6130596707635991,75,31.858181044319824
6,2.3023023023023024,-0.6477694935631864,75,31.858181044319824
6,2.3123123123123124,-0.6839653031255163,75,31.858181044319824
6,2.3223223223223224,-0.7172477112274543,75,31.858181044319824
6,2.3323323323323324,-0.7484809548552193,75,31.858181044319824
6,2.3423423423423424,-0.7720010337118871,75,31.858181044319824
6,2.3523523523523524,-0.7758741259404329,75,31.858181044319824
6,2.3623623623623624,-0.7776348446821835,75,31.858181044319824
6,2.3723723723723724,-0.7694492720062734,75,31.858181044319824
6,2.3823823823823824,-0.7569467698943311,75,31.858181044319824
6,2.3923923923923924,-0.7251281976394355,75,31.858181044319824
6,2.4024024024024024,-0.7094122631614211,75,31.858181044319824
6,2.4124124124124124,-0.6535024367980691,75,31.858181044319824
6,2.4224224224224224,-0.6072050089663711,75,31.858181044319824
6,2.4324324324324325,-0.5536026379361086,75,31.858181044319824
6,2.4424424424424425,-0.4802799366484529,75,31.858181044319824
6,2.4524524524524525,-0.4029558273859988,75,31.858181044319824
6,2.4624624624624625,-0.3246664452748807,75,31.858181044319824
6,2.4724724724724725,-0.2429500297225983,75,31.858181044319824
6,2.4824824824824825,-0.1533312374542315,75,31.858181044319824
6,2.4924924924924925,-0.064942766374484,75,31.858181044319824
6,2.5025025025025025,0.0187703823543786,75,31.858181044319824
6,2.5125125125125125,0.114065870089951,75,31.858181044319824
6,2.5225225225225225,0.2023552228693725,75,31.858181044319824
6,2.5325325325325325,0.2928484646541227,75,31.858181044319824
6,2.5425425425425425,0.3645137345594539,75,31.858181044319824
6,2.5525525525525525,0.4426325713131936,75,31.858181044319824
6,2.5625625625625625,0.5231983014923218,75,31.858181044319824
6,2.5725725725725725,0.5698733247236192,75,31.858181044319824
6,2.5825825825825826,0.6403170582620373,75,31.858181044319824
6,2.592592592592593,0.6803667658812569,75,31.858181044319824
6,2.6026026026026026,0.7148474776249443,75,31.858181044319824
6,2.612612612612613,0.7551751166596526,75,31.858181044319824
6,2.6226226226226226,0.7665434142135843,75,31.858181044319824
6,2.6326326326326326,0.7697011289024641,75,31.858181044319824
6,2.6426426426426426,0.782963867460116,75,31.858181044319824
6,2.6526526526526526,0.772623699093079,75,31.858181044319824
6,2.6626626626626626,0.7476004380701944,75,31.858181044319824
6,2.6726726726726726,0.7283745169879938,75,31.858181044319824
6,2.6826826826826826,0.7004083757911749,75,31.858181044319824
6,2.6926926926926926,0.6647197298342693,75,31.858181044319824
6,2.702702702702702,0.6250531268099327,75,31.858181044319824
6,2.7127127127127126,0.5727630590366227,75,31.858181044319824
6,2.722722722722722,0.5294958942506071,75,31.858181044319824
6,2.7327327327327327,0.4832349647796743,75,31.858181044319824
6,2.7427427427427427,0.4286104137952661,75,31.858181044319824
6,2.7527527527527527,0.3851364231057588,75,31.858181044319824
6,2.7627627627627627,0.3322848797209885,75,31.858181044319824
6,2.7727727727727727,0.2841802623058755,75,31.858181044319824
6,2.7827827827827827,0.2343942045394981,75,31.858181044319824
6,2.7927927927927927,0.1879309016219862,75,31.858181044319824
6,2.8028028028028027,0.1570900499679167,75,31.858181044319824
6,2.8128128128128127,0.1164643871962604,75,31.858181044319824
6,2.8228228228228227,0.0938238812356882,75,31.858181044319824
6,2.8328328328328327,0.0742047332714296,75,31.858181044319824
6,2.8428428428428427,0.0403315288869378,75,31.858181044319824
6,2.8528528528528527,0.0319629897797577,75,31.858181044319824
6,2.8628628628628627,0.0211759243815956,75,31.858181044319824
6,2.8728728728728727,0.0133303499302982,75,31.858181044319824
6,2.8828828828828827,0.0072630273454559,75,31.858181044319824
6,2.8928928928928928,0.0101663630345018,75,31.858181044319824
6,2.9029029029029028,0.0052999529280858,75,31.858181044319824
6,2.9129129129129128,-0.0027467212262509,75,31.858181044319824
6,2.9229229229229228,-0.0011532257018502,75,31.858181044319824
6,2.932932932932933,0.0028110322311329,75,31.858181044319824
6,2.942942942942943,0.0077811317554669,75,31.858181044319824
6,2.952952952952953,-0.0067012079542757,75,31.858181044319824
6,2.962962962962963,-0.0021223700426359,75,31.858181044319824
6,2.972972972972973,-0.0207510263753864,75,31.858181044319824
6,2.982982982982983,-0.03263018234947,75,31.858181044319824
6,2.992992992992993,-0.052869795626944,75,31.858181044319824
6,3.003003003003003,-0.0740797462094576,75,31.858181044319824
6,3.013013013013013,-0.0983078772070491,75,31.858181044319824
6,3.023023023023023,-0.1327881739387149,75,31.858181044319824
6,3.033033033033033,-0.1653798903124172,75,31.858181044319824
6,3.043043043043043,-0.2079715798478629,75,31.858181044319824
6,3.053053053053053,-0.2488097241942644,75,31.858181044319824
6,3.063063063063063,-0.2900991869949165,75,31.858181044319824
6,3.073073073073073,-0.3399334584198922,75,31.858181044319824
6,3.083083083083083,-0.3942251007651033,75,31.858181044319824
6,3.093093093093093,-0.4514662287108978,75,31.858181044319824
6,3.103103103103103,-0.4945270595686416,75,31.858181044319824
6,3.113113113113113,-0.5449554104704196,75,31.858181044319824
6,3.123123123123123,-0.6036562629811683,75,31.858181044319824
6,3.133133133133133,-0.627847391389095,75,31.858181044319824
6,3.143143143143143,-0.6767464291069516,75,31.858181044319824
6,3.153153153153153,-0.7106144901890715,75,31.858181044319824
6,3.163163163163163,-0.7316374969118061,75,31.858181044319824
6,3.173173173173173,-0.7636164398789466,75,31.858181044319824
6,3.183183183183183,-0.76882408751503,75,31.858181044319824
6,3.193193193193193,-0.782692250764957,75,31.858181044319824
6,3.203203203203203,-0.7677098211060787,75,31.858181044319824
6,3.2132132132132134,-0.7579623452981277,75,31.858181044319824
6,3.2232232232232234,-0.7407895837128233,75,31.858181044319824
6,3.2332332332332334,-0.7068066944116272,75,31.858181044319824
6,3.2432432432432434,-0.6632187196109095,75,31.858181044319824
6,3.253253253253253,-0.6294283298329816,75,31.858181044319824
6,3.2632632632632634,-0.5619374852189548,75,31.858181044319824
6,3.273273273273273,-0.5044869756296197,75,31.858181044319824
6,3.2832832832832834,-0.435212404377789,75,31.858181044319824
6,3.293293293293293,-0.3481133883324088,75,31.858181044319824
6,3.3033033033033035,-0.2665033234102555,75,31.858181044319824
6,3.313313313313313,-0.1823372961427802,75,31.858181044319824
6,3.3233233233233235,-0.0889271524084713,75,31.858181044319824
6,3.333333333333333,0.0028171040605539,75,31.858181044319824
6,3.3433433433433435,0.0983982405632438,75,31.858181044319824
6,3.353353353353353,0.1758011410243709,75,31.858181044319824
6,3.3633633633633635,0.2634351836248304,75,31.858181044319824
6,3.373373373373373,0.3431107287879931,75,31.858181044319824
6,3.3833833833833835,0.4286428494127367,75,31.858181044319824
6,3.393393393393393,0.4938711576468158,75,31.858181044319824
6,3.4034034034034035,0.5710866677707005,75,31.858181044319824
6,3.413413413413413,0.6118074409689991,75,31.858181044319824
6,3.4234234234234235,0.6659966365063902,75,31.858181044319824
6,3.433433433433433,0.6994616244955383,75,31.858181044319824
6,3.443443443443444,0.7390656525218703,75,31.858181044319824
6,3.4534534534534536,0.7673655694017348,75,31.858181044319824
6,3.463463463463464,0.7731944195617356,75,31.858181044319824
6,3.4734734734734736,0.7740109528222262,75,31.858181044319824
6,3.483483483483484,0.7731976787307061,75,31.858181044319824
6,3.4934934934934936,0.7573974372433129,75,31.858181044319824
6,3.503503503503504,0.7486943193924285,75,31.858181044319824
6,3.5135135135135136,0.7107510620087781,75,31.858181044319824
6,3.523523523523524,0.6761179262560706,75,31.858181044319824
6,3.5335335335335336,0.6368832555116215,75,31.858181044319824
6,3.543543543543544,0.5913318956907702,75,31.858181044319824
6,3.5535535535535536,0.5429159559452629,75,31.858181044319824
6,3.563563563563564,0.4960025325638586,75,31.858181044319824
6,3.5735735735735736,0.4480330126100927,75,31.858181044319824
6,3.583583583583584,0.3862673424018343,75,31.858181044319824
6,3.5935935935935936,0.3451567267991117,75,31.858181044319824
6,3.603603603603604,0.2834851390967781,75,31.858181044319824
6,3.6136136136136137,0.2452926568078058,75,31.858181044319824
6,3.623623623623624,0.2150667946846115,75,31.858181044319824
6,3.6336336336336337,0.1698867232250853,75,31.858181044319824
6,3.643643643643644,0.1124630718955115,75,31.858181044319824
6,3.6536536536536537,0.095588283007591,75,31.858181044319824
6,3.663663663663664,0.0784052398797014,75,31.858181044319824
6,3.6736736736736737,0.0515242787800928,75,31.858181044319824
6,3.683683683683684,0.035028763610781,75,31.858181044319824
6,3.6936936936936937,0.0240939177266089,75,31.858181044319824
6,3.703703703703704,0.011590026476465,75,31.858181044319824
6,3.7137137137137137,0.0056477918884978,75,31.858181044319824
6,3.723723723723724,0.0143394337554787,75,31.858181044319824
6,3.7337337337337337,0.007814422853714,75,31.858181044319824
6,3.743743743743744,-0.0005361086394013,75,31.858181044319824
6,3.7537537537537538,0.0032885728110126,75,31.858181044319824
6,3.763763763763764,-0.0009896629053023,75,31.858181044319824
6,3.7737737737737738,-0.011665358435402,75,31.858181044319824
6,3.783783783783784,-0.0075603581014645,75,31.858181044319824
6,3.793793793793794,-0.0057628053721916,75,31.858181044319824
6,3.803803803803804,-0.0158518098140212,75,31.858181044319824
6,3.813813813813814,-0.0204786771921689,75,31.858181044319824
6,3.823823823823824,-0.050367884717372,75,31.858181044319824
6,3.833833833833834,-0.0694956161826921,75,31.858181044319824
6,3.843843843843844,-0.0971401756171562,75,31.858181044319824
6,3.853853853853854,-0.1244763346722593,75,31.858181044319824
6,3.863863863863864,-0.1602603332661485,75,31.858181044319824
6,3.873873873873874,-0.1942332574297843,75,31.858181044319824
6,3.883883883883884,-0.2368945170023817,75,31.858181044319824
6,3.893893893893894,-0.276536337805903,75,31.858181044319824
6,3.903903903903904,-0.3349773930678099,75,31.858181044319824
6,3.913913913913914,-0.3754652708727556,75,31.858181044319824
6,3.923923923923924,-0.435499742834102,75,31.858181044319824
6,3.933933933933934,-0.4879557730715257,75,31.858181044319824
6,3.943943943943944,-0.523778037196919,75,31.858181044319824
6,3.953953953953954,-0.5774846190285685,75,31.858181044319824
6,3.963963963963964,-0.6226724351142796,75,31.858181044319824
6,3.973973973973974,-0.6670353293135451,75,31.858181044319824
6,3.983983983983984,-0.7037334313425786,75,31.858181044319824
6,3.993993993993994,-0.7409075418822737,75,31.858181044319824
6,4.004004004004004,-0.7578158529445094,75,31.858181044319824
6,4.014014014014014,-0.7763140677894174,75,31.858181044319824
6,4.024024024024024,-0.7771769977903102,75,31.858181044319824
6,4.034034034034034,-0.7783426396386274,75,31.858181044319824
6,4.044044044044044,-0.7676138799142819,75,31.858181044319824
6,4.054054054054054,-0.7429201315121899,75,31.858181044319824
6,4.064064064064064,-0.726264513349371,75,31.858181044319824
6,4.074074074074074,-0.6878861796347677,75,31.858181044319824
6,4.084084084084084,-0.6311297823516039,75,31.858181044319824
6,4.094094094094094,-0.5828431336554157,75,31.858181044319824
6,4.104104104104104,-0.5156060666794129,75,31.858181044319824
6,4.114114114114114,-0.4439480825636239,75,31.858181044319824
6,4.124124124124124,-0.36284805421103,75,31.858181044319824
6,4.134134134134134,-0.292866976977665,75,31.858181044319824
6,4.144144144144144,-0.2023209070094747,75,31.858181044319824
6,4.1541541541541545,-0.1131547972795087,75,31.858181044319824
6,4.1641641641641645,-0.0247298275261944,75,31.858181044319824
6,4.174174174174175,0.0707700173179634,75,31.858181044319824
6,4.1841841841841845,0.1569643544501511,75,31.858181044319824
6,4.1941941941941945,0.2494648847089599,75,31.858181044319824
6,4.2042042042042045,0.3262350513406515,75,31.858181044319824
6,4.214214214214215,0.4072524242984833,75,31.858181044319824
6,4.2242242242242245,0.4896210462407029,75,31.858181044319824
6,4.2342342342342345,0.5575790498534573,75,31.858181044319824
6,4.2442442442442445,0.6048095765378193,75,31.858181044319824
6,4.254254254254255,0.6553388410401243,75,31.858181044319824
6,4.2642642642642645,0.6991082715549842,75,31.858181044319824
6,4.2742742742742745,0.7334839062092963,75,31.858181044319824
6,4.2842842842842845,0.7516660102947683,75,31.858181044319824
6,4.294294294294295,0.7749135320727617,75,31.858181044319824
6,4.3043043043043046,0.7835061278104025,75,31.858181044319824
6,4.314314314314315,0.7746275021040775,75,31.858181044319824
6,4.324324324324325,0.7635230314359366,75,31.858181044319824
6,4.334334334334335,0.7437019781136124,75,31.858181044319824
6,4.344344344344345,0.7138052853620876,75,31.858181044319824
6,4.354354354354355,0.6832478965790356,75,31.858181044319824
6,4.364364364364365,0.6482989526002759,75,31.858181044319824
6,4.374374374374375,0.6107230521348052,75,31.858181044319824
6,4.384384384384385,0.5640610827463213,75,31.858181044319824
6,4.394394394394395,0.5095989154292205,75,31.858181044319824
6,4.404404404404405,0.457548312880931,75,31.858181044319824
6,4.414414414414415,0.4061440738601564,75,31.858181044319824
6,4.424424424424425,0.3537852813473081,75,31.858181044319824
6,4.434434434434435,0.3047889519804777,75,31.858181044319824
6,4.444444444444445,0.254564739759214,75,31.858181044319824
6,4.454454454454455,0.2143243359307937,75,31.858181044319824
6,4.464464464464465,0.1786787555896633,75,31.858181044319824
6,4.474474474474475,0.1463135940341849,75,31.858181044319824
6,4.484484484484485,0.1132420740154833,75,31.858181044319824
6,4.494494494494495,0.0751553180303975,75,31.858181044319824
6,4.504504504504505,0.064035732470211,75,31.858181044319824
6,4.514514514514515,0.0284403106840122,75,31.858181044319824
6,4.524524524524525,0.0225954397652242,75,31.858181044319824
6,4.534534534534535,0.0231528822694668,75,31.858181044319824
6,4.544544544544545,0.0094949559369143,75,31.858181044319824
6,4.554554554554555,0.0067239208862,75,31.858181044319824
6,4.564564564564565,0.0002540147607865,75,31.858181044319824
6,4.574574574574575,0.0006166085327475,75,31.858181044319824
6,4.584584584584585,-0.0084435492300841,75,31.858181044319824
6,4.594594594594595,-0.0043237161770936,75,31.858181044319824
6,4.604604604604605,-0.0017271684087158,75,31.858181044319824
6,4.614614614614615,0.0029444863221816,75,31.858181044319824
6,4.624624624624625,-0.0076001410068988,75,31.858181044319824
6,4.634634634634635,-0.0178230598053486,75,31.858181044319824
6,4.644644644644645,-0.0256270389884662,75,31.858181044319824
6,4.654654654654655,-0.0484156083279583,75,31.858181044319824
6,4.664664664664665,-0.0686113822020274,75,31.858181044319824
6,4.674674674674675,-0.0861523320835153,75,31.858181044319824
6,4.684684684684685,-0.1081345766643818,75,31.858181044319824
6,4.694694694694695,-0.1547680966415288,75,31.858181044319824
6,4.704704704704705,-0.1836806126314273,75,31.858181044319824
6,4.714714714714715,-0.2326992002690494,75,31.858181044319824
6,4.724724724724725,-0.2778178169353529,75,31.858181044319824
6,4.734734734734735,-0.3174924425505847,75,31.858181044319824
6,4.744744744744745,-0.3707515833078488,75,31.858181044319824
6,4.754754754754755,-0.4227131685358262,75,31.858181044319824
6,4.764764764764765,-0.463711103763897,75,31.858181044319824
6,4.774774774774775,-0.520755846149565,75,31.858181044319824
6,4.784784784784785,-0.5746189442895303,75,31.858181044319824
6,4.794794794794795,-0.6270895725018084,75,31.858181044319824
6,4.804804804804805,-0.6587848485828615,75,31.858181044319824
6,4.814814814814815,-0.693127792535587,75,31.858181044319824
6,4.824824824824825,-0.7202252675403499,75,31.858181044319824
6,4.834834834834835,-0.7509086681374562,75,31.858181044319824
6,4.844844844844845,-0.767102172770232,75,31.858181044319824
6,4.854854854854855,-0.7757875434141611,75,31.858181044319824
6,4.864864864864865,-0.7730506362753498,75,31.858181044319824
6,4.874874874874875,-0.7713042660951069,75,31.858181044319824
6,4.884884884884885,-0.7521210176147197,75,31.858181044319824
6,4.894894894894895,-0.7237915241973172,75,31.858181044319824
6,4.904904904904905,-0.690081571607872,75,31.858181044319824
6,4.914914914914915,-0.6401081414793566,75,31.858181044319824
6,4.924924924924925,-0.6072410649586248,75,31.858181044319824
6,4.934934934934935,-0.5331065205099329,75,31.858181044319824
6,4.944944944944945,-0.4568456538345651,75,31.858181044319824
6,4.954954954954955,-0.3962398882983032,75,31.858181044319824
6,4.964964964964965,-0.3094785589779327,75,31.858181044319824
6,4.974974974974975,-0.2208420744054182,75,31.858181044319824
6,4.984984984984985,-0.1305762088385434,75,31.858181044319824
6,4.994994994994995,-0.0357394597322345,75,31.858181044319824
6,5.005005005005005,0.0433038790223887,75,31.858181044319824
6,5.015015015015015,0.1444869158642124,75,31.858181044319824
6,5.025025025025025,0.2259592858075623,75,31.858181044319824
6,5.035035035035035,0.312649765588973,75,31.858181044319824
6,5.045045045045045,0.3796502396418015,75,31.858181044319824
6,5.055055055055055,0.4648986204244957,75,31.858181044319824
6,5.065065065065065,0.524995090320196,75,31.858181044319824
6,5.075075075075075,0.5947215181075172,75,31.858181044319824
6,5.085085085085085,0.6440742416512799,75,31.858181044319824
6,5.095095095095095,0.6904074293075607,75,31.858181044319824
6,5.105105105105105,0.7230380545206924,75,31.858181044319824
6,5.115115115115115,0.754871980543135,75,31.858181044319824
6,5.125125125125125,0.7635700894782237,75,31.858181044319824
6,5.135135135135135,0.7748127914577665,75,31.858181044319824
6,5.145145145145145,0.7762647155651987,75,31.858181044319824
6,5.155155155155155,0.7682508672159074,75,31.858181044319824
6,5.165165165165165,0.758471767722011,75,31.858181044319824
6,5.175175175175175,0.7220718578820685,75,31.858181044319824
6,5.185185185185185,0.689128826761874,75,31.858181044319824
6,5.195195195195195,0.6589242671601971,75,31.858181044319824
6,5.205205205205205,0.6189863597473159,75,31.858181044319824
6,5.215215215215215,0.5688640869026097,75,31.858181044319824
6,5.225225225225225,0.5162848950046236,75,31.858181044319824
6,5.235235235235235,0.4792273974808985,75,31.858181044319824
6,5.245245245245245,0.4174396942497024,75,31.858181044319824
6,5.255255255255255,0.3661963575935092,75,31.858181044319824
6,5.265265265265265,0.3208666844872752,75,31.858181044319824
6,5.275275275275275,0.2744660670747731,75,31.858181044319824
6,5.285285285285285,0.2258823068556781,75,31.858181044319824
6,5.295295295295295,0.1880623613292641,75,31.858181044319824
6,5.305305305305305,0.1444401758949377,75,31.858181044319824
6,5.315315315315315,0.1162204804633286,75,31.858181044319824
6,5.325325325325325,0.092590882366925,75,31.858181044319824
6,5.335335335335335,0.0595564018526447,75,31.858181044319824
6,5.345345345345345,0.0442834878486467,75,31.858181044319824
6,5.355355355355355,0.0349309394071226,75,31.858181044319824
6,5.365365365365365,0.0098379019455002,75,31.858181044319824
6,5.375375375375375,-0.0010772948114603,75,31.858181044319824
6,5.385385385385385,-0.0004359133065492,75,31.858181044319824
6,5.395395395395395,-0.0079884053615021,75,31.858181044319824
6,5.405405405405405,-0.0021518290366604,75,31.858181044319824
6,5.415415415415415,0.0002576202103829,75,31.858181044319824
6,5.425425425425425,-0.0052495020582345,75,31.858181044319824
6,5.435435435435435,0.0048289612331789,75,31.858181044319824
6,5.445445445445445,-0.0023817945570745,75,31.858181044319824
6,5.455455455455455,-0.000583210180019,75,31.858181044319824
6,5.465465465465465,-0.0103988220959733,75,31.858181044319824
6,5.475475475475475,-0.0212951275973484,75,31.858181044319824
6,5.485485485485485,-0.0368917861953851,75,31.858181044319824
6,5.495495495495495,-0.0629599041354078,75,31.858181044319824
6,5.505505505505505,-0.0802628469235752,75,31.858181044319824
6,5.515515515515515,-0.1102035763369793,75,31.858181044319824
6,5.525525525525525,-0.1330312054947335,75,31.858181044319824
6,5.535535535535535,-0.1721558007230743,75,31.858181044319824
6,5.545545545545545,-0.2130252726032551,75,31.858181044319824
6,5.555555555555555,-0.2593561957186278,75,31.858181044319824
6,5.565565565565565,-0.307609525146143,75,31.858181044319824
6,5.575575575575575,-0.3551388145696844,75,31.858181044319824
6,5.585585585585585,-0.4108977727983578,75,31.858181044319824
6,5.595595595595595,-0.4555692152260645,75,31.858181044319824
6,5.605605605605605,-0.5106246160963606,75,31.858181044319824
6,5.615615615615615,-0.5655581072760438,75,31.858181044319824
6,5.625625625625625,-0.602419626467828,75,31.858181044319824
6,5.635635635635635,-0.647436148774578,75,31.858181044319824
6,5.645645645645645,-0.6897492158954209,75,31.858181044319824
6,5.655655655655655,-0.7100339126704882,75,31.858181044319824
6,5.665665665665665,-0.7429134528396063,75,31.858181044319824
6,5.675675675675675,-0.755461535605736,75,31.858181044319824
6,5.685685685685685,-0.7697597118197611,75,31.858181044319824
6,5.695695695695696,-0.7763785694775693,75,31.858181044319824
6,5.7057057057057055,-0.7757846382611747,75,31.858181044319824
6,5.715715715715716,-0.7534967750914322,75,31.858181044319824
6,5.7257257257257255,-0.7269153852698456,75,31.858181044319824
6,5.735735735735736,-0.7055243865896452,75,31.858181044319824
6,5.7457457457457455,-0.6713302509340033,75,31.858181044319824
6,5.755755755755756,-0.6020662737620237,75,31.858181044319824
6,5.7657657657657655,-0.5431664143992251,75,31.858181044319824
6,5.775775775775776,-0.4845399755245768,75,31.858181044319824
6,5.7857857857857855,-0.410047942675385,75,31.858181044319824
6,5.795795795795796,-0.331618493575348,75,31.858181044319824
6,5.8058058058058055,-0.2443872920638038,75,31.858181044319824
6,5.815815815815816,-0.1548540350426787,75,31.858181044319824
6,5.8258258258258255,-0.0668595499527569,75,31.858181044319824
6,5.835835835835836,0.0206078196160875,75,31.858181044319824
6,5.8458458458458455,0.1147186792264259,75,31.858181044319824
6,5.855855855855856,0.1985214838395332,75,31.858181044319824
6,5.865865865865866,0.2862115976544368,75,31.858181044319824
6,5.875875875875876,0.3682133961943658,75,31.858181044319824
6,5.885885885885886,0.4477229694275502,75,31.858181044319824
6,5.895895895895896,0.5064034556936577,75,31.858181044319824
6,5.905905905905906,0.5795902992792554,75,31.858181044319824
6,5.915915915915916,0.6382620962657735,75,31.858181044319824
6,5.925925925925926,0.6847833745768722,75,31.858181044319824
6,5.935935935935936,0.7153398213396137,75,31.858181044319824
6,5.945945945945946,0.7555459921234186,75,31.858181044319824
6,5.955955955955956,0.7670077631217823,75,31.858181044319824
6,5.965965965965966,0.7771731000581074,75,31.858181044319824
6,5.975975975975976,0.7861911937204469,75,31.858181044319824
6,5.985985985985986,0.7707319738159385,75,31.858181044319824
6,5.995995995995996,0.7500817813528604,75,31.858181044319824
6,6.006006006006006,0.7224840126816683,75,31.858181044319824
6,6.016016016016016,0.7064227403899144,75,31.858181044319824
6,6.026026026026026,0.6695059433154599,75,31.858181044319824
6,6.036036036036036,0.6267220405990523,75,31.858181044319824
6,6.046046046046046,0.5809396003051329,75,31.858181044319824
6,6.056056056056056,0.5225120878356254,75,31.858181044319824
6,6.066066066066066,0.4790277619488588,75,31.858181044319824
6,6.076076076076076,0.432968604842284,75,31.858181044319824
6,6.086086086086086,0.3811350694287634,75,31.858181044319824
6,6.096096096096096,0.3385796967436512,75,31.858181044319824
6,6.106106106106106,0.2869943577230051,75,31.858181044319824
6,6.116116116116116,0.2329863696388016,75,31.858181044319824
6,6.126126126126126,0.196147811618038,75,31.858181044319824
6,6.136136136136136,0.1577151224868717,75,31.858181044319824
6,6.146146146146146,0.1340677185640987,75,31.858181044319824
6,6.156156156156156,0.1060851759247265,75,31.858181044319824
6,6.166166166166166,0.0707942897308033,75,31.858181044319824
6,6.176176176176176,0.0510216889396389,75,31.858181044319824
6,6.186186186186186,0.0261857512096618,75,31.858181044319824
6,6.196196196196196,0.0128446562487042,75,31.858181044319824
6,6.206206206206206,0.009274207265643,75,31.858181044319824
6,6.216216216216216,-0.0026754671408361,75,31.858181044319824
6,6.226226226226226,0.0086366739894739,75,31.858181044319824
6,6.236236236236236,0.003924976773233,75,31.858181044319824
6,6.246246246246246,-0.0033222568118204,75,31.858181044319824
6,6.256256256256256,-0.0011806163750051,75,31.858181044319824
6,6.266266266266266,0.0013529164200888,75,31.858181044319824
6,6.276276276276276,-0.0036309174904695,75,31.858181044319824
6,6.286286286286286,-0.0107206387628415,75,31.858181044319824
6,6.296296296296296,-0.0069873543052935,75,31.858181044319824
6,6.306306306306306,-0.0261825921161103,75,31.858181044319824
6,6.316316316316316,-0.043234754188592,75,31.858181044319824
6,6.326326326326326,-0.0560299829619364,75,31.858181044319824
6,6.336336336336336,-0.0768742275726449,75,31.858181044319824
6,6.346346346346346,-0.1072926048594218,75,31.858181044319824
6,6.356356356356356,-0.1346187673847406,75,31.858181044319824
6,6.366366366366366,-0.160883003336763,75,31.858181044319824
6,6.376376376376376,-0.2071840456723774,75,31.858181044319824
6,6.386386386386386,-0.2496843804755408,75,31.858181044319824
6,6.396396396396396,-0.2954428801473476,75,31.858181044319824
6,6.406406406406406,-0.3399992263118921,75,31.858181044319824
6,6.416416416416417,-0.3858612975160178,75,31.858181044319824
6,6.426426426426427,-0.4513569095039235,75,31.858181044319824
6,6.436436436436437,-0.4976461288520171,75,31.858181044319824
6,6.446446446446447,-0.5439687738394198,75,31.858181044319824
6,6.456456456456457,-0.580722045573243,75,31.858181044319824
6,6.466466466466467,-0.6407046034735021,75,31.858181044319824
6,6.476476476476477,-0.6757649353539666,75,31.858181044319824
6,6.486486486486487,-0.7073769125223396,75,31.858181044319824
6,6.496496496496497,-0.7335072608614994,75,31.858181044319824
6,6.506506506506507,-0.7716979730800985,75,31.858181044319824
6,6.516516516516517,-0.7770647277311991,75,31.858181044319824
6,6.526526526526527,-0.7813656940284976,75,31.858181044319824
6,6.536536536536537,-0.7845201543173072,75,31.858181044319824
6,6.546546546546547,-0.7709030412932845,75,31.858181044319824
6,6.556556556556557,-0.7343836280076448,75,31.858181044319824
6,6.566566566566567,-0.7150477225248112,75,31.858181044319824
6,6.576576576576577,-0.6687738278896548,75,31.858181044319824
6,6.586586586586587,-0.6210369354831065,75,31.858181044319824
6,6.596596596596597,-0.5627436604167714,75,31.858181044319824
6,6.606606606606607,-0.4986771204989311,75,31.858181044319824
6,6.616616616616617,-0.4171855702044772,75,31.858181044319824
6,6.626626626626627,-0.3564472797726971,75,31.858181044319824
6,6.636636636636637,-0.2651317664223517,75,31.858181044319824
6,6.646646646646647,-0.1794006239091627,75,31.858181044319824
6,6.656656656656657,-0.081089092690997,75,31.858181044319824
6,6.666666666666667,-0.0054354404608236,75,31.858181044319824
6,6.676676676676677,0.0936116718442095,75,31.858181044319824
6,6.686686686686687,0.1749330974398393,75,31.858181044319824
6,6.696696696696697,0.273794005929792,75,31.858181044319824
6,6.706706706706707,0.3431313884907052,75,31.858181044319824
6,6.716716716716717,0.4232815533454085,75,31.858181044319824
6,6.726726726726727,0.5012149378824919,75,31.858181044319824
6,6.736736736736737,0.5694463852114992,75,31.858181044319824
6,6.746746746746747,0.6216188754779424,75,31.858181044319824
6,6.756756756756757,0.6674665143739749,75,31.858181044319824
6,6.766766766766767,0.7154441734218626,75,31.858181044319824
6,6.776776776776777,0.7363980078386667,75,31.858181044319824
6,6.786786786786787,0.7591997277330714,75,31.858181044319824
6,6.796796796796797,0.7795571770956431,75,31.858181044319824
6,6.806806806806807,0.7890678714749203,75,31.858181044319824
6,6.816816816816817,0.7752020997570312,75,31.858181044319824
6,6.826826826826827,0.7608720151173635,75,31.858181044319824
6,6.836836836836837,0.7372383268099632,75,31.858181044319824
6,6.846846846846847,0.7182301539815058,75,31.858181044319824
6,6.856856856856857,0.66857427337378,75,31.858181044319824
6,6.866866866866867,0.6394941141669215,75,31.858181044319824
6,6.876876876876877,0.5876994534747599,75,31.858181044319824
6,6.886886886886887,0.5396943002091584,75,31.858181044319824
6,6.896896896896897,0.4862720376025169,75,31.858181044319824
6,6.906906906906907,0.4428566751366604,75,31.858181044319824
6,6.916916916916917,0.4001066465015718,75,31.858181044319824
6,6.926926926926927,0.3435298863243075,75,31.858181044319824
6,6.936936936936937,0.2960445166718782,75,31.858181044319824
6,6.946946946946947,0.2526920306756867,75,31.858181044319824
6,6.956956956956957,0.2020551495861038,75,31.858181044319824
6,6.966966966966967,0.1719841129822313,75,31.858181044319824
6,6.976976976976977,0.1271217376244271,75,31.858181044319824
6,6.986986986986987,0.0964151044747838,75,31.858181044319824
6,6.996996996996997,0.0755961501212778,75,31.858181044319824
6,7.007007007007007,0.0450357002044656,75,31.858181044319824
6,7.017017017017017,0.0388292113099141,75,31.858181044319824
6,7.027027027027027,0.0292019845236386,75,31.858181044319824
6,7.037037037037037,0.020048335287377,75,31.858181044319824
6,7.047047047047047,0.0030914012706648,75,31.858181044319824
6,7.057057057057057,-0.0003185238785683,75,31.858181044319824
6,7.067067067067067,0.0030211041723891,75,31.858181044319824
6,7.077077077077077,0.0028556178015926,75,31.858181044319824
6,7.087087087087087,0.0052238489390682,75,31.858181044319824
6,7.097097097097097,0.0019873110121199,75,31.858181044319824
6,7.107107107107107,0.0009470328786306,75,31.858181044319824
6,7.117117117117117,-0.0080967236810895,75,31.858181044319824
6,7.127127127127127,-0.0083810064009898,75,31.858181044319824
6,7.137137137137137,-0.0193777921860835,75,31.858181044319824
6,7.147147147147147,-0.0448313959062199,75,31.858181044319824
6,7.157157157157157,-0.052084605203387,75,31.858181044319824
6,7.167167167167167,-0.0722381803826277,75,31.858181044319824
6,7.177177177177177,-0.0916887015423564,75,31.858181044319824
6,7.187187187187187,-0.1194770609775263,75,31.858181044319824
6,7.197197197197197,-0.1577784249064873,75,31.858181044319824
6,7.207207207207207,-0.1995179759937075,75,31.858181044319824
6,7.217217217217217,-0.2428455449567167,75,31.858181044319824
6,7.227227227227227,-0.2929015374125865,75,31.858181044319824
6,7.237237237237237,-0.3290691062527624,75,31.858181044319824
6,7.247247247247247,-0.3813996788507641,75,31.858181044319824
6,7.257257257257257,-0.4271206829170669,75,31.858181044319824
6,7.267267267267267,-0.484972934439689,75,31.858181044319824
6,7.277277277277277,-0.5340494748562226,75,31.858181044319824
6,7.287287287287287,-0.5701225253856476,75,31.858181044319824
6,7.297297297297297,-0.6164813400898802,75,31.858181044319824
6,7.307307307307307,-0.6678905653582382,75,31.858181044319824
6,7.317317317317317,-0.7011644411562338,75,31.858181044319824
6,7.327327327327327,-0.728077331493999,75,31.858181044319824
6,7.337337337337337,-0.7638836872632889,75,31.858181044319824
6,7.347347347347347,-0.7583078748035255,75,31.858181044319824
6,7.357357357357357,-0.7866754352207824,75,31.858181044319824
6,7.367367367367367,-0.7859403254556643,75,31.858181044319824
6,7.377377377377377,-0.7689855381601592,75,31.858181044319824
6,7.387387387387387,-0.7442309401227845,75,31.858181044319824
6,7.397397397397397,-0.7164809715452028,75,31.858181044319824
6,7.407407407407407,-0.6708895935910447,75,31.858181044319824
6,7.4174174174174174,-0.6269536597377369,75,31.858181044319824
6,7.4274274274274275,-0.5753985425560539,75,31.858181044319824
6,7.437437437437437,-0.5192047600941445,75,31.858181044319824
6,7.447447447447447,-0.4492296020948463,75,31.858181044319824
6,7.4574574574574575,-0.3597342121611664,75,31.858181044319824
6,7.4674674674674675,-0.2848912366849254,75,31.858181044319824
6,7.477477477477477,-0.1991298032621832,75,31.858181044319824
6,7.487487487487487,-0.1038171189644941,75,31.858181044319824
6,7.4974974974974975,-0.022103138381162,75,31.858181044319824
6,7.5075075075075075,0.0717620340664264,75,31.858181044319824
6,7.517517517517517,0.1541841398867751,75,31.858181044319824
6,7.527527527527527,0.2496183594517329,75,31.858181044319824
6,7.5375375375375375,0.3252187058981857,75,31.858181044319824
6,7.5475475475475475,0.4044045449720436,75,31.858181044319824
6,7.557557557557557,0.4863612880662406,75,31.858181044319824
6,7.567567567567567,0.5432896467987832,75,31.858181044319824
6,7.5775775775775776,0.6008719340037075,75,31.858181044319824
6,7.587587587587588,0.6559558118953852,75,31.858181044319824
6,7.597597597597598,0.7001220819983368,75,31.858181044319824
6,7.607607607607608,0.7437013171085888,75,31.858181044319824
6,7.617617617617618,0.7575350675416614,75,31.858181044319824
6,7.627627627627628,0.7698740008571585,75,31.858181044319824
6,7.637637637637638,0.7917497883075447,75,31.858181044319824
6,7.647647647647648,0.7850204831514046,75,31.858181044319824
6,7.657657657657658,0.7646341354318082,75,31.858181044319824
6,7.667667667667668,0.7516873229083735,75,31.858181044319824
6,7.677677677677678,0.7237124785678405,75,31.858181044319824
6,7.687687687687688,0.6812115648508322,75,31.858181044319824
6,7.697697697697698,0.6446464356738004,75,31.858181044319824
6,7.707707707707708,0.604345948130673,75,31.858181044319824
6,7.717717717717718,0.5596079293187328,75,31.858181044319824
6,7.727727727727728,0.5076869179849902,75,31.858181044319824
6,7.737737737737738,0.460607756003037,75,31.858181044319824
6,7.747747747747748,0.3941905739410493,75,31.858181044319824
6,7.757757757757758,0.359265699592145,75,31.858181044319824
6,7.767767767767768,0.304802032638014,75,31.858181044319824
6,7.777777777777778,0.2643117419111473,75,31.858181044319824
6,7.787787787787788,0.2146552407659264,75,31.858181044319824
6,7.797797797797798,0.1762517071568903,75,31.858181044319824
6,7.807807807807808,0.1393328394078792,75,31.858181044319824
6,7.817817817817818,0.1135010328762826,75,31.858181044319824
6,7.827827827827828,0.0749650721269043,75,31.858181044319824
6,7.837837837837838,0.0509802531165973,75,31.858181044319824
6,7.847847847847848,0.0313483752394089,75,31.858181044319824
6,7.857857857857858,0.0164245634471799,75,31.858181044319824
6,7.867867867867868,0.0213168184738279,75,31.858181044319824
6,7.877877877877878,0.0012880563263548,75,31.858181044319824
6,7.887887887887888,0.0054491277581127,75,31.858181044319824
6,7.897897897897898,0.0004852049831901,75,31.858181044319824
6,7.907907907907908,0.0013993554670805,75,31.858181044319824
6,7.917917917917918,0.0018338880986239,75,31.858181044319824
6,7.927927927927928,0.0086013895260376,75,31.858181044319824
6,7.937937937937938,-0.0005058042527546,75,31.858181044319824
6,7.947947947947948,-0.0119540199867367,75,31.858181044319824
6,7.957957957957958,-0.0020804576353803,75,31.858181044319824
6,7.967967967967968,-0.0108237207337427,75,31.858181044319824
6,7.977977977977978,-0.0307103329550341,75,31.858181044319824
6,7.987987987987988,-0.0321555244867207,75,31.858181044319824
6,7.997997997997998,-0.0677828569302595,75,31.858181044319824
6,8.008008008008009,-0.0953471198837614,75,31.858181044319824
6,8.018018018018019,-0.1182357039765959,75,31.858181044319824
6,8.028028028028029,-0.1469108881772638,75,31.858181044319824
6,8.038038038038039,-0.1971210288324183,75,31.858181044319824
6,8.048048048048049,-0.2203597479451363,75,31.858181044319824
6,8.058058058058059,-0.2758662210522085,75,31.858181044319824
6,8.068068068068069,-0.3274693564099877,75,31.858181044319824
6,8.078078078078079,-0.362025665811044,75,31.858181044319824
6,8.088088088088089,-0.4220784644732612,75,31.858181044319824
6,8.098098098098099,-0.4674821431036032,75,31.858181044319824
6,8.108108108108109,-0.5249218288371751,75,31.858181044319824
6,8.118118118118119,-0.5570827319918347,75,31.858181044319824
6,8.128128128128129,-0.6056000445117918,75,31.858181044319824
6,8.138138138138139,-0.648035240874012,75,31.858181044319824
6,8.148148148148149,-0.6959212474989799,75,31.858181044319824
6,8.158158158158159,-0.7277976936692679,75,31.858181044319824
6,8.168168168168169,-0.7419150121487897,75,31.858181044319824
6,8.178178178178179,-0.7616762204270696,75,31.858181044319824
6,8.188188188188189,-0.7761141017799222,75,31.858181044319824
6,8.198198198198199,-0.7833879417606208,75,31.858181044319824
6,8.208208208208209,-0.7774808772321073,75,31.858181044319824
6,8.218218218218219,-0.7588782248226922,75,31.858181044319824
6,8.228228228228229,-0.7271868454363767,75,31.858181044319824
6,8.238238238238239,-0.6840296378698462,75,31.858181044319824
6,8.248248248248249,-0.6490555393801253,75,31.858181044319824
6,8.258258258258259,-0.5923791976200808,75,31.858181044319824
6,8.268268268268269,-0.529664542941414,75,31.858181044319824
6,8.278278278278279,-0.4596481726067589,75,31.858181044319824
6,8.288288288288289,-0.3855381401946536,75,31.858181044319824
6,8.298298298298299,-0.3159555810630789,75,31.858181044319824
6,8.308308308308309,-0.2177829658320849,75,31.858181044319824
6,8.318318318318319,-0.1409829744280752,75,31.858181044319824
6,8.328328328328329,-0.0531350131212686,75,31.858181044319824
6,8.338338338338339,0.0321370194032196,75,31.858181044319824
6,8.348348348348349,0.1459592021811105,75,31.858181044319824
6,8.358358358358359,0.2217142026277516,75,31.858181044319824
6,8.368368368368369,0.3042788231736082,75,31.858181044319824
6,8.378378378378379,0.3965808840172606,75,31.858181044319824
6,8.388388388388389,0.4624093336504221,75,31.858181044319824
6,8.398398398398399,0.5312317661999197,75,31.858181044319824
6,8.408408408408409,0.5831412978243531,75,31.858181044319824
6,8.418418418418419,0.6609824259791903,75,31.858181044319824
6,8.428428428428429,0.6971467771137497,75,31.858181044319824
6,8.438438438438439,0.7298942652584091,75,31.858181044319824
6,8.448448448448449,0.7477394570016039,75,31.858181044319824
6,8.458458458458459,0.7759981730084402,75,31.858181044319824
6,8.468468468468469,0.7799153159175227,75,31.858181044319824
6,8.478478478478479,0.7825237241149561,75,31.858181044319824
6,8.488488488488489,0.7659583501560427,75,31.858181044319824
6,8.498498498498499,0.7503295281066152,75,31.858181044319824
6,8.508508508508509,0.7317591043373193,75,31.858181044319824
6,8.518518518518519,0.6929503127516966,75,31.858181044319824
6,8.528528528528529,0.6523022309257824,75,31.858181044319824
6,8.538538538538539,0.6124101924734251,75,31.858181044319824
6,8.548548548548549,0.5753549705857981,75,31.858181044319824
6,8.558558558558559,0.5129551694098475,75,31.858181044319824
6,8.568568568568569,0.4680966054169484,75,31.858181044319824
6,8.578578578578579,0.4222598323310924,75,31.858181044319824
6,8.588588588588589,0.3630348493611289,75,31.858181044319824
6,8.598598598598599,0.3180192729356921,75,31.858181044319824
6,8.608608608608609,0.2728164463765812,75,31.858181044319824
6,8.618618618618619,0.2332117278696824,75,31.858181044319824
6,8.62862862862863,0.186354255480265,75,31.858181044319824
6,8.63863863863864,0.1513842196375027,75,31.858181044319824
6,8.64864864864865,0.1125203030856629,75,31.858181044319824
6,8.65865865865866,0.0898738380095718,75,31.858181044319824
6,8.66866866866867,0.0630908917705651,75,31.858181044319824
6,8.67867867867868,0.0335026511227465,75,31.858181044319824
6,8.68868868868869,0.0272737670195484,75,31.858181044319824
6,8.6986986986987,0.0239480110163615,75,31.858181044319824
6,8.70870870870871,0.0071756998794329,75,31.858181044319824
6,8.71871871871872,-0.0084642563160308,75,31.858181044319824
6,8.72872872872873,-0.0087345649575067,75,31.858181044319824
6,8.73873873873874,-0.0013597259022278,75,31.858181044319824
6,8.74874874874875,0.0113039344880819,75,31.858181044319824
6,8.75875875875876,0.0027075711929593,75,31.858181044319824
6,8.76876876876877,0.0123468873404394,75,31.858181044319824
6,8.77877877877878,-0.0007969530941684,75,31.858181044319824
6,8.78878878878879,-0.0085632828768934,75,31.858181044319824
6,8.7987987987988,-0.0139408165517719,75,31.858181044319824
6,8.80880880880881,-0.0224360129988179,75,31.858181044319824
6,8.81881881881882,-0.0379812009442608,75,31.858181044319824
6,8.82882882882883,-0.0470116763526668,75,31.858181044319824
6,8.83883883883884,-0.0769364525068982,75,31.858181044319824
6,8.84884884884885,-0.1058676456117766,75,31.858181044319824
6,8.85885885885886,-0.1393458675662883,75,31.858181044319824
6,8.86886886886887,-0.1713592684000071,75,31.858181044319824
6,8.87887887887888,-0.2185271462156195,75,31.858181044319824
6,8.88888888888889,-0.2607622518826034,75,31.858181044319824
6,8.8988988988989,-0.3117912143274194,75,31.858181044319824
6,8.90890890890891,-0.3525571820532013,75,31.858181044319824
6,8.91891891891892,-0.400332994722003,75,31.858181044319824
6,8.92892892892893,-0.4541908493435815,75,31.858181044319824
6,8.93893893893894,-0.5055332031325168,75,31.858181044319824
6,8.94894894894895,-0.5605564963028976,75,31.858181044319824
6,8.95895895895896,-0.6045640967692423,75,31.858181044319824
6,8.96896896896897,-0.6432714576339784,75,31.858181044319824
6,8.97897897897898,-0.6811640800669921,75,31.858181044319824
6,8.98898898898899,-0.715210462909324,75,31.858181044319824
6,8.998998998999,-0.7468581091928036,75,31.858181044319824
6,9.00900900900901,-0.7555664892499914,75,31.858181044319824
6,9.01901901901902,-0.7734626526548045,75,31.858181044319824
6,9.02902902902903,-0.7728499330187898,75,31.858181044319824
6,9.03903903903904,-0.7785907816310065,75,31.858181044319824
6,9.04904904904905,-0.7576826432538935,75,31.858181044319824
6,9.05905905905906,-0.7268891822178016,75,31.858181044319824
6,9.06906906906907,-0.7077477459468414,75,31.858181044319824
6,9.07907907907908,-0.6658438888270409,75,31.858181044319824
6,9.08908908908909,-0.6162906970865005,75,31.858181044319824
6,9.0990990990991,-0.5514591473132414,75,31.858181044319824
6,9.10910910910911,-0.4732054561264014,75,31.858181044319824
6,9.11911911911912,-0.4232322051317511,75,31.858181044319824
6,9.12912912912913,-0.3343292758509448,75,31.858181044319824
6,9.13913913913914,-0.2530060600665119,75,31.858181044319824
6,9.14914914914915,-0.1579379012104531,75,31.858181044319824
6,9.15915915915916,-0.0675758763925479,75,31.858181044319824
6,9.16916916916917,0.0132389086702057,75,31.858181044319824
6,9.17917917917918,0.1126009178924167,75,31.858181044319824
6,9.18918918918919,0.199980257079676,75,31.858181044319824
6,9.1991991991992,0.2886054105710008,75,31.858181044319824
6,9.20920920920921,0.3655560157464894,75,31.858181044319824
6,9.21921921921922,0.4510789412458542,75,31.858181044319824
6,9.22922922922923,0.522800725848166,75,31.858181044319824
6,9.23923923923924,0.5809637021587983,75,31.858181044319824
6,9.24924924924925,0.6363315201911761,75,31.858181044319824
6,9.25925925925926,0.6890750520736434,75,31.858181044319824
6,9.26926926926927,0.7165342984870855,75,31.858181044319824
6,9.27927927927928,0.7472951871255785,75,31.858181044319824
6,9.28928928928929,0.7616707842553255,75,31.858181044319824
6,9.2992992992993,0.7762559814026819,75,31.858181044319824
6,9.30930930930931,0.7845668530759633,75,31.858181044319824
6,9.31931931931932,0.7682419881365095,75,31.858181044319824
6,9.32932932932933,0.7450740061429386,75,31.858181044319824
6,9.33933933933934,0.7316739180551322,75,31.858181044319824
6,9.34934934934935,0.6939540601575016,75,31.858181044319824
6,9.35935935935936,0.6625206971582428,75,31.858181044319824
6,9.36936936936937,0.6242606262985828,75,31.858181044319824
6,9.37937937937938,0.576857270710269,75,31.858181044319824
6,9.38938938938939,0.5320529421904951,75,31.858181044319824
6,9.3993993993994,0.4698650455358039,75,31.858181044319824
6,9.40940940940941,0.4278235225133394,75,31.858181044319824
6,9.41941941941942,0.3865786559962533,75,31.858181044319824
6,9.42942942942943,0.3347916007692744,75,31.858181044319824
6,9.43943943943944,0.281958656800059,75,31.858181044319824
6,9.44944944944945,0.2402550626976551,75,31.858181044319824
6,9.45945945945946,0.1963866533176794,75,31.858181044319824
6,9.46946946946947,0.1598597206525239,75,31.858181044319824
6,9.47947947947948,0.1234012397626475,75,31.858181044319824
6,9.48948948948949,0.0888788340862486,75,31.858181044319824
6,9.4994994994995,0.0703207132511217,75,31.858181044319824
6,9.50950950950951,0.0432521092857749,75,31.858181044319824
6,9.51951951951952,0.0334020787384434,75,31.858181044319824
6,9.52952952952953,0.0202226412597286,75,31.858181044319824
6,9.53953953953954,0.0094267092170092,75,31.858181044319824
6,9.54954954954955,-0.0033216617058031,75,31.858181044319824
6,9.55955955955956,0.0017264141058104,75,31.858181044319824
6,9.56956956956957,0.0080499089223996,75,31.858181044319824
6,9.57957957957958,-0.0045355813784073,75,31.858181044319824
6,9.58958958958959,0.0042597061407185,75,31.858181044319824
6,9.5995995995996,-0.0021012854829335,75,31.858181044319824
6,9.60960960960961,-0.0026746170657296,75,31.858181044319824
6,9.61961961961962,-0.0075004494718504,75,31.858181044319824
6,9.62962962962963,-0.0178530802773637,75,31.858181044319824
6,9.63963963963964,-0.018323111889258,75,31.858181044319824
6,9.64964964964965,-0.0383311645334031,75,31.858181044319824
6,9.65965965965966,-0.0567021169795776,75,31.858181044319824
6,9.66966966966967,-0.0803115781655548,75,31.858181044319824
6,9.67967967967968,-0.1083051167375219,75,31.858181044319824
6,9.68968968968969,-0.1261075388039133,75,31.858181044319824
6,9.6996996996997,-0.1610376977616559,75,31.858181044319824
6,9.70970970970971,-0.2059723997266193,75,31.858181044319824
6,9.71971971971972,-0.2552214652313844,75,31.858181044319824
6,9.72972972972973,-0.2966378506413007,75,31.858181044319824
6,9.73973973973974,-0.3308318728692627,75,31.858181044319824
6,9.74974974974975,-0.3886646038203526,75,31.858181044319824
6,9.75975975975976,-0.4365269750845318,75,31.858181044319824
6,9.76976976976977,-0.5023601532311883,75,31.858181044319824
6,9.77977977977978,-0.5461931721519462,75,31.858181044319824
6,9.78978978978979,-0.5802474930574401,75,31.858181044319824
6,9.7997997997998,-0.635862735671833,75,31.858181044319824
6,9.80980980980981,-0.6753035326455562,75,31.858181044319824
6,9.81981981981982,-0.7126615127208212,75,31.858181044319824
6,9.82982982982983,-0.7430114865784797,75,31.858181044319824
6,9.83983983983984,-0.7454967369821641,75,31.858181044319824
6,9.84984984984985,-0.7741271136701302,75,31.858181044319824
6,9.85985985985986,-0.7791787696190385,75,31.858181044319824
6,9.86986986986987,-0.7676415489637181,75,31.858181044319824
6,9.87987987987988,-0.7618355616658303,75,31.858181044319824
6,9.88988988988989,-0.7380871054208025,75,31.858181044319824
6,9.8998998998999,-0.7068618567630263,75,31.858181044319824
6,9.90990990990991,-0.6691202034405362,75,31.858181044319824
6,9.91991991991992,-0.6251862875245912,75,31.858181044319824
6,9.92992992992993,-0.5645519461322737,75,31.858181044319824
6,9.93993993993994,-0.4950886395030685,75,31.858181044319824
6,9.94994994994995,-0.4290459007222605,75,31.858181044319824
6,9.95995995995996,-0.3513497692654096,75,31.858181044319824
6,9.96996996996997,-0.2727831602042801,75,31.858181044319824
6,9.97997997997998,-0.1788354129190322,75,31.858181044319824
6,9.98998998998999,-0.0904627172808452,75,31.858181044319824
6,10.0,-0.0016009683774007,75,31.858181044319824
