Subject_ID,Time,PPG,HR,HRV
20,0.0,-6.59381912805577e-05,67,99.56933584362692
20,0.01001001001001,0.0931269150503962,67,99.56933584362692
20,0.02002002002002,0.1789208230116411,67,99.56933584362692
20,0.03003003003003,0.2646181049604156,67,99.56933584362692
20,0.04004004004004,0.344740681836331,67,99.56933584362692
20,0.05005005005005,0.4268897104326484,67,99.56933584362692
20,0.06006006006006,0.4936991750788762,67,99.56933584362692
20,0.07007007007007,0.5654400331531265,67,99.56933584362692
20,0.08008008008008,0.6220651243546952,67,99.56933584362692
20,0.09009009009009,0.6654815871611663,67,99.56933584362692
20,0.1001001001001,0.7182077154721366,67,99.56933584362692
20,0.1101101101101101,0.7380879636237757,67,99.56933584362692
20,0.1201201201201201,0.7703336807138128,67,99.56933584362692
20,0.1301301301301301,0.7751763576162383,67,99.56933584362692
20,0.1401401401401401,0.7839294233652747,67,99.56933584362692
20,0.1501501501501501,0.777286578602009,67,99.56933584362692
20,0.1601601601601601,0.7536207720835035,67,99.56933584362692
20,0.1701701701701701,0.7405889906310057,67,99.56933584362692
20,0.1801801801801801,0.7150014315517366,67,99.56933584362692
20,0.1901901901901901,0.6760833524010946,67,99.56933584362692
20,0.2002002002002001,0.6350965818179726,67,99.56933584362692
20,0.2102102102102102,0.5894794913335575,67,99.56933584362692
20,0.2202202202202202,0.5446317061177685,67,99.56933584362692
20,0.2302302302302302,0.4917846258921178,67,99.56933584362692
20,0.2402402402402402,0.4401554673222835,67,99.56933584362692
20,0.2502502502502503,0.3926702139856553,67,99.56933584362692
20,0.2602602602602603,0.3411302053211632,67,99.56933584362692
20,0.2702702702702703,0.2855705220088715,67,99.56933584362692
20,0.2802802802802803,0.2552956734570377,67,99.56933584362692
20,0.2902902902902903,0.2088871710554108,67,99.56933584362692
20,0.3003003003003003,0.156848101814644,67,99.56933584362692
20,0.3103103103103103,0.129201713154208,67,99.56933584362692
20,0.3203203203203203,0.1047003856740396,67,99.56933584362692
20,0.3303303303303303,0.0785624879081608,67,99.56933584362692
20,0.3403403403403403,0.0520303375211172,67,99.56933584362692
20,0.3503503503503503,0.0418409329743689,67,99.56933584362692
20,0.3603603603603603,0.0164398347867971,67,99.56933584362692
20,0.3703703703703703,0.0187525822283347,67,99.56933584362692
20,0.3803803803803803,0.0018919995408512,67,99.56933584362692
20,0.3903903903903903,0.0032797041566043,67,99.56933584362692
20,0.4004004004004003,0.0030005973603176,67,99.56933584362692
20,0.4104104104104104,-0.0077729023166693,67,99.56933584362692
20,0.4204204204204204,-0.0011617355758639,67,99.56933584362692
20,0.4304304304304304,-0.0021643975346538,67,99.56933584362692
20,0.4404404404404404,-0.0003018871379811,67,99.56933584362692
20,0.4504504504504504,-0.0072984185188105,67,99.56933584362692
20,0.4604604604604604,-0.0066786462394263,67,99.56933584362692
20,0.4704704704704704,-0.0158413742297475,67,99.56933584362692
20,0.4804804804804805,-0.0305741182872772,67,99.56933584362692
20,0.4904904904904905,-0.0439402339339594,67,99.56933584362692
20,0.5005005005005005,-0.0694921420126155,67,99.56933584362692
20,0.5105105105105106,-0.1018553450380441,67,99.56933584362692
20,0.5205205205205206,-0.1217354125245593,67,99.56933584362692
20,0.5305305305305306,-0.1599096510952034,67,99.56933584362692
20,0.5405405405405406,-0.1944334089995224,67,99.56933584362692
20,0.5505505505505506,-0.2491080792733769,67,99.56933584362692
20,0.5605605605605606,-0.280094936747078,67,99.56933584362692
20,0.5705705705705706,-0.3299093679466535,67,99.56933584362692
20,0.5805805805805806,-0.3768626091518155,67,99.56933584362692
20,0.5905905905905906,-0.4271951397199713,67,99.56933584362692
20,0.6006006006006006,-0.4868532528032269,67,99.56933584362692
20,0.6106106106106106,-0.5217738398659291,67,99.56933584362692
20,0.6206206206206206,-0.5762762716329392,67,99.56933584362692
20,0.6306306306306306,-0.6270003147262403,67,99.56933584362692
20,0.6406406406406406,-0.6669406407226938,67,99.56933584362692
20,0.6506506506506506,-0.7012183716483908,67,99.56933584362692
20,0.6606606606606606,-0.7325754339719387,67,99.56933584362692
20,0.6706706706706707,-0.7501067699480868,67,99.56933584362692
20,0.6806806806806807,-0.7689229856017542,67,99.56933584362692
20,0.6906906906906907,-0.7879262558150119,67,99.56933584362692
20,0.7007007007007007,-0.7765833290625843,67,99.56933584362692
20,0.7107107107107107,-0.7681301297233865,67,99.56933584362692
20,0.7207207207207207,-0.7435818701747555,67,99.56933584362692
20,0.7307307307307307,-0.7184834698487922,67,99.56933584362692
20,0.7407407407407407,-0.6851475912708915,67,99.56933584362692
20,0.7507507507507507,-0.6243490730529805,67,99.56933584362692
20,0.7607607607607607,-0.5764809300770316,67,99.56933584362692
20,0.7707707707707707,-0.5206935894504819,67,99.56933584362692
20,0.7807807807807807,-0.4447442885689006,67,99.56933584362692
20,0.7907907907907907,-0.3624676086974044,67,99.56933584362692
20,0.8008008008008007,-0.282772154237559,67,99.56933584362692
20,0.8108108108108109,-0.1993115257736248,67,99.56933584362692
20,0.8208208208208209,-0.1100823859864062,67,99.56933584362692
20,0.8308308308308309,-0.0285615519300416,67,99.56933584362692
20,0.8408408408408409,0.0620270569240971,67,99.56933584362692
20,0.8508508508508509,0.155443382720508,67,99.56933584362692
20,0.8608608608608609,0.2441532607466528,67,99.56933584362692
20,0.8708708708708709,0.3304911808508315,67,99.56933584362692
20,0.8808808808808809,0.4126919499835376,67,99.56933584362692
20,0.8908908908908909,0.4838584640655768,67,99.56933584362692
20,0.9009009009009008,0.5470783277814324,67,99.56933584362692
20,0.9109109109109108,0.6124992500294361,67,99.56933584362692
20,0.9209209209209208,0.6612681791944586,67,99.56933584362692
20,0.9309309309309308,0.7006508992129333,67,99.56933584362692
20,0.9409409409409408,0.7290126520251416,67,99.56933584362692
20,0.950950950950951,0.7560921262813824,67,99.56933584362692
20,0.960960960960961,0.7782149947182802,67,99.56933584362692
20,0.970970970970971,0.773479727972912,67,99.56933584362692
20,0.980980980980981,0.7704268827867371,67,99.56933584362692
20,0.990990990990991,0.7604297454420024,67,99.56933584362692
20,1.001001001001001,0.7402266765167752,67,99.56933584362692
20,1.011011011011011,0.7144645632441889,67,99.56933584362692
20,1.021021021021021,0.6857583290351889,67,99.56933584362692
20,1.031031031031031,0.6469731261001377,67,99.56933584362692
20,1.0410410410410411,0.5998901331647359,67,99.56933584362692
20,1.0510510510510511,0.5615664619431229,67,99.56933584362692
20,1.0610610610610611,0.4978955643589162,67,99.56933584362692
20,1.0710710710710711,0.4576144836731031,67,99.56933584362692
20,1.0810810810810811,0.4056851264785751,67,99.56933584362692
20,1.0910910910910911,0.3541152134973945,67,99.56933584362692
20,1.1011011011011012,0.3144515184887716,67,99.56933584362692
20,1.1111111111111112,0.2666457122749675,67,99.56933584362692
20,1.1211211211211212,0.2157893475674574,67,99.56933584362692
20,1.1311311311311312,0.1717906517423763,67,99.56933584362692
20,1.1411411411411412,0.1442915145009408,67,99.56933584362692
20,1.1511511511511512,0.1072068810112768,67,99.56933584362692
20,1.1611611611611612,0.0741041275521128,67,99.56933584362692
20,1.1711711711711712,0.0578424599054013,67,99.56933584362692
20,1.1811811811811812,0.0454081264644667,67,99.56933584362692
20,1.1911911911911912,0.021272774951352,67,99.56933584362692
20,1.2012012012012012,0.0033341718925647,67,99.56933584362692
20,1.2112112112112112,0.0070995811444163,67,99.56933584362692
20,1.2212212212212212,0.0061786896060422,67,99.56933584362692
20,1.2312312312312312,-0.0021688417067326,67,99.56933584362692
20,1.2412412412412412,0.0011890233805295,67,99.56933584362692
20,1.2512512512512513,0.0018572043390378,67,99.56933584362692
20,1.2612612612612613,-0.0056584227207296,67,99.56933584362692
20,1.2712712712712713,-0.000872397913133,67,99.56933584362692
20,1.2812812812812813,0.001195419309309,67,99.56933584362692
20,1.2912912912912913,-0.0060961197475658,67,99.56933584362692
20,1.3013013013013013,-0.0151429835241987,67,99.56933584362692
20,1.3113113113113113,-0.0311317489409989,67,99.56933584362692
20,1.3213213213213213,-0.0376566306610749,67,99.56933584362692
20,1.3313313313313313,-0.0619288666753868,67,99.56933584362692
20,1.3413413413413413,-0.0899593050700391,67,99.56933584362692
20,1.351351351351351,-0.1153163270346369,67,99.56933584362692
20,1.361361361361361,-0.144574411565958,67,99.56933584362692
20,1.371371371371371,-0.1870882171060475,67,99.56933584362692
20,1.3813813813813811,-0.2223130588552456,67,99.56933584362692
20,1.3913913913913911,-0.2636023620601528,67,99.56933584362692
20,1.4014014014014011,-0.321414096039315,67,99.56933584362692
20,1.4114114114114114,-0.3679344482656838,67,99.56933584362692
20,1.4214214214214214,-0.4217488613251857,67,99.56933584362692
20,1.4314314314314314,-0.4676727451415401,67,99.56933584362692
20,1.4414414414414414,-0.5183886641337404,67,99.56933584362692
20,1.4514514514514514,-0.5666868693740871,67,99.56933584362692
20,1.4614614614614614,-0.6147539825408099,67,99.56933584362692
20,1.4714714714714714,-0.6542238002240298,67,99.56933584362692
20,1.4814814814814814,-0.6925850604656129,67,99.56933584362692
20,1.4914914914914914,-0.7222521624260372,67,99.56933584362692
20,1.5015015015015014,-0.753413852250473,67,99.56933584362692
20,1.5115115115115114,-0.7703895916714779,67,99.56933584362692
20,1.5215215215215214,-0.7800554533886226,67,99.56933584362692
20,1.5315315315315314,-0.7808916773359246,67,99.56933584362692
20,1.5415415415415414,-0.7771641618968432,67,99.56933584362692
20,1.5515515515515514,-0.7550024581539239,67,99.56933584362692
20,1.5615615615615617,-0.7354275407916233,67,99.56933584362692
20,1.5715715715715717,-0.6845525073899963,67,99.56933584362692
20,1.5815815815815817,-0.6519500730678526,67,99.56933584362692
20,1.5915915915915917,-0.5848811760644209,67,99.56933584362692
20,1.6016016016016017,-0.5340107915276628,67,99.56933584362692
20,1.6116116116116117,-0.4643443983892906,67,99.56933584362692
20,1.6216216216216215,-0.3904557946853156,67,99.56933584362692
20,1.6316316316316315,-0.3025482608819169,67,99.56933584362692
20,1.6416416416416415,-0.2266791913075026,67,99.56933584362692
20,1.6516516516516515,-0.1320927847223701,67,99.56933584362692
20,1.6616616616616615,-0.0466139567325227,67,99.56933584362692
20,1.6716716716716715,0.0504905917340222,67,99.56933584362692
20,1.6816816816816818,0.1363969565784711,67,99.56933584362692
20,1.6916916916916918,0.2191322590680831,67,99.56933584362692
20,1.7017017017017018,0.3066695515790515,67,99.56933584362692
20,1.7117117117117118,0.3891985838224315,67,99.56933584362692
20,1.7217217217217218,0.4626816229485723,67,99.56933584362692
20,1.7317317317317318,0.5247391326526168,67,99.56933584362692
20,1.7417417417417418,0.5983853715192752,67,99.56933584362692
20,1.7517517517517518,0.6481553538586488,67,99.56933584362692
20,1.7617617617617618,0.6871854995120745,67,99.56933584362692
20,1.7717717717717718,0.721121139806213,67,99.56933584362692
20,1.7817817817817818,0.7479673929188064,67,99.56933584362692
20,1.7917917917917918,0.7654529874011661,67,99.56933584362692
20,1.8018018018018016,0.7903939891387458,67,99.56933584362692
20,1.811811811811812,0.7697160977933827,67,99.56933584362692
20,1.8218218218218216,0.7638696815084454,67,99.56933584362692
20,1.831831831831832,0.7536426570424959,67,99.56933584362692
20,1.8418418418418416,0.7295643287195008,67,99.56933584362692
20,1.851851851851852,0.7043148056125578,67,99.56933584362692
20,1.8618618618618616,0.6503373013691452,67,99.56933584362692
20,1.871871871871872,0.6162126040038595,67,99.56933584362692
20,1.8818818818818817,0.5684209376869287,67,99.56933584362692
20,1.891891891891892,0.5249156865273964,67,99.56933584362692
20,1.901901901901902,0.4700951258619982,67,99.56933584362692
20,1.911911911911912,0.4225092036587675,67,99.56933584362692
20,1.921921921921922,0.359426537258161,67,99.56933584362692
20,1.931931931931932,0.3138169758511023,67,99.56933584362692
20,1.941941941941942,0.2696003858644322,67,99.56933584362692
20,1.951951951951952,0.2336592353268223,67,99.56933584362692
20,1.961961961961962,0.1821890547006709,67,99.56933584362692
20,1.971971971971972,0.1562846709763529,67,99.56933584362692
20,1.981981981981982,0.1175585159449642,67,99.56933584362692
20,1.991991991991992,0.0837610667696683,67,99.56933584362692
20,2.002002002002002,0.0589124108966555,67,99.56933584362692
20,2.012012012012012,0.0455508243991286,67,99.56933584362692
20,2.022022022022022,0.0226776821723337,67,99.56933584362692
20,2.032032032032032,0.0154972307849004,67,99.56933584362692
20,2.042042042042042,0.0016380385827589,67,99.56933584362692
20,2.052052052052052,0.0018195774988088,67,99.56933584362692
20,2.062062062062062,0.0015200916473012,67,99.56933584362692
20,2.072072072072072,0.0070342242246671,67,99.56933584362692
20,2.0820820820820822,-0.0124849837812777,67,99.56933584362692
20,2.092092092092092,-0.0046175074602901,67,99.56933584362692
20,2.1021021021021022,-0.0048564768985248,67,99.56933584362692
20,2.112112112112112,-0.0017745199042275,67,99.56933584362692
20,2.1221221221221223,0.0039183092867656,67,99.56933584362692
20,2.1321321321321323,-0.0123888185994319,67,99.56933584362692
20,2.1421421421421423,-0.0280909900331341,67,99.56933584362692
20,2.1521521521521523,-0.0442064292672819,67,99.56933584362692
20,2.1621621621621623,-0.057406970393968,67,99.56933584362692
20,2.1721721721721723,-0.0896535272126751,67,99.56933584362692
20,2.1821821821821823,-0.1004830790312002,67,99.56933584362692
20,2.1921921921921923,-0.1329298277952634,67,99.56933584362692
20,2.2022022022022023,-0.1740359469455683,67,99.56933584362692
20,2.2122122122122123,-0.2211365493689171,67,99.56933584362692
20,2.2222222222222223,-0.2767070318339158,67,99.56933584362692
20,2.2322322322322323,-0.3134545055443549,67,99.56933584362692
20,2.2422422422422423,-0.3616648620284856,67,99.56933584362692
20,2.2522522522522523,-0.4008418603866278,67,99.56933584362692
20,2.2622622622622623,-0.4602295135335429,67,99.56933584362692
20,2.2722722722722724,-0.5058310361959408,67,99.56933584362692
20,2.2822822822822824,-0.5552763178195227,67,99.56933584362692
20,2.2922922922922924,-0.5980517221552815,67,99.56933584362692
20,2.3023023023023024,-0.650357617198108,67,99.56933584362692
20,2.3123123123123124,-0.6867002227318784,67,99.56933584362692
20,2.3223223223223224,-0.72141824628594,67,99.56933584362692
20,2.3323323323323324,-0.7460524955793647,67,99.56933584362692
20,2.3423423423423424,-0.7632277335961458,67,99.56933584362692
20,2.3523523523523524,-0.7679057427866394,67,99.56933584362692
20,2.3623623623623624,-0.7811586815195095,67,99.56933584362692
20,2.3723723723723724,-0.7686630109110367,67,99.56933584362692
20,2.3823823823823824,-0.7546451090074404,67,99.56933584362692
20,2.3923923923923924,-0.7318526940426252,67,99.56933584362692
20,2.4024024024024024,-0.7084389863300826,67,99.56933584362692
20,2.4124124124124124,-0.6606252300516715,67,99.56933584362692
20,2.4224224224224224,-0.6109477735767999,67,99.56933584362692
20,2.4324324324324325,-0.5485593899833311,67,99.56933584362692
20,2.4424424424424425,-0.4827519719315223,67,99.56933584362692
20,2.4524524524524525,-0.410992304165117,67,99.56933584362692
20,2.4624624624624625,-0.3356339348926863,67,99.56933584362692
20,2.4724724724724725,-0.2525762441534082,67,99.56933584362692
20,2.4824824824824825,-0.1664533704761392,67,99.56933584362692
20,2.4924924924924925,-0.0761991892096828,67,99.56933584362692
20,2.5025025025025025,0.0088369429758523,67,99.56933584362692
20,2.5125125125125125,0.1120345868542114,67,99.56933584362692
20,2.5225225225225225,0.2093493927499602,67,99.56933584362692
20,2.5325325325325325,0.2909285752323663,67,99.56933584362692
20,2.5425425425425425,0.3717007426809939,67,99.56933584362692
20,2.5525525525525525,0.4479431736349195,67,99.56933584362692
20,2.5625625625625625,0.5119735652745612,67,99.56933584362692
20,2.5725725725725725,0.5782587697852684,67,99.56933584362692
20,2.5825825825825826,0.6226395578775189,67,99.56933584362692
20,2.592592592592593,0.6825808827040402,67,99.56933584362692
20,2.6026026026026026,0.7199149310357464,67,99.56933584362692
20,2.612612612612613,0.7524268891125496,67,99.56933584362692
20,2.6226226226226226,0.7597849961289312,67,99.56933584362692
20,2.6326326326326326,0.773894312216168,67,99.56933584362692
20,2.6426426426426426,0.7840069774220685,67,99.56933584362692
20,2.6526526526526526,0.7688316011254,67,99.56933584362692
20,2.6626626626626626,0.756921939269896,67,99.56933584362692
20,2.6726726726726726,0.726897264215779,67,99.56933584362692
20,2.6826826826826826,0.6992819022919531,67,99.56933584362692
20,2.6926926926926926,0.6569457671091431,67,99.56933584362692
20,2.702702702702702,0.6202565963874777,67,99.56933584362692
20,2.7127127127127126,0.5719371696802583,67,99.56933584362692
20,2.722722722722722,0.5216086476167692,67,99.56933584362692
20,2.7327327327327327,0.4836057781429216,67,99.56933584362692
20,2.7427427427427427,0.4349926682372003,67,99.56933584362692
20,2.7527527527527527,0.3756468630819076,67,99.56933584362692
20,2.7627627627627627,0.3408168697402048,67,99.56933584362692
20,2.7727727727727727,0.2800954345881009,67,99.56933584362692
20,2.7827827827827827,0.2306657133826629,67,99.56933584362692
20,2.7927927927927927,0.2002458777873438,67,99.56933584362692
20,2.8028028028028027,0.161134017225292,67,99.56933584362692
20,2.8128128128128127,0.1152937994599934,67,99.56933584362692
20,2.8228228228228227,0.092721590082196,67,99.56933584362692
20,2.8328328328328327,0.0705976190478854,67,99.56933584362692
20,2.8428428428428427,0.0453273491291084,67,99.56933584362692
20,2.8528528528528527,0.0317071341792892,67,99.56933584362692
20,2.8628628628628627,0.0260214681802686,67,99.56933584362692
20,2.8728728728728727,0.0075449471855684,67,99.56933584362692
20,2.8828828828828827,0.0134385373830801,67,99.56933584362692
20,2.8928928928928928,0.0050037496845631,67,99.56933584362692
20,2.9029029029029028,-0.0026717615402515,67,99.56933584362692
20,2.9129129129129128,0.0037852829134314,67,99.56933584362692
20,2.9229229229229228,0.0148152556401777,67,99.56933584362692
20,2.932932932932933,-0.0075239043356645,67,99.56933584362692
20,2.942942942942943,-0.0025949557728613,67,99.56933584362692
20,2.952952952952953,-0.0083564145614682,67,99.56933584362692
20,2.962962962962963,-0.01350082442429,67,99.56933584362692
20,2.972972972972973,-0.0299609445433775,67,99.56933584362692
20,2.982982982982983,-0.0287752624746849,67,99.56933584362692
20,2.992992992992993,-0.0646752807469007,67,99.56933584362692
20,3.003003003003003,-0.0703353181634127,67,99.56933584362692
20,3.013013013013013,-0.0973802206010146,67,99.56933584362692
20,3.023023023023023,-0.1303595877150721,67,99.56933584362692
20,3.033033033033033,-0.1718563872448733,67,99.56933584362692
20,3.043043043043043,-0.2072021673640016,67,99.56933584362692
20,3.053053053053053,-0.2587935483350124,67,99.56933584362692
20,3.063063063063063,-0.2952815126604595,67,99.56933584362692
20,3.073073073073073,-0.3407108986047386,67,99.56933584362692
20,3.083083083083083,-0.3891241788284993,67,99.56933584362692
20,3.093093093093093,-0.4402767745983506,67,99.56933584362692
20,3.103103103103103,-0.4963330142922634,67,99.56933584362692
20,3.113113113113113,-0.5421328997546109,67,99.56933584362692
20,3.123123123123123,-0.5898343214168401,67,99.56933584362692
20,3.133133133133133,-0.6325905907551285,67,99.56933584362692
20,3.143143143143143,-0.6643223176064897,67,99.56933584362692
20,3.153153153153153,-0.7063300170368046,67,99.56933584362692
20,3.163163163163163,-0.7371753162875679,67,99.56933584362692
20,3.173173173173173,-0.7687028754216614,67,99.56933584362692
20,3.183183183183183,-0.771692307830449,67,99.56933584362692
20,3.193193193193193,-0.7719077712342388,67,99.56933584362692
20,3.203203203203203,-0.7769492919647148,67,99.56933584362692
20,3.2132132132132134,-0.7664148382671604,67,99.56933584362692
20,3.2232232232232234,-0.7393665073417929,67,99.56933584362692
20,3.2332332332332334,-0.7080934779275505,67,99.56933584362692
20,3.2432432432432434,-0.6696952183555224,67,99.56933584362692
20,3.253253253253253,-0.6166589028786977,67,99.56933584362692
20,3.2632632632632634,-0.5656577049867172,67,99.56933584362692
20,3.273273273273273,-0.5001762786898156,67,99.56933584362692
20,3.2832832832832834,-0.4307806745508417,67,99.56933584362692
20,3.293293293293293,-0.3460337308558968,67,99.56933584362692
20,3.3033033033033035,-0.269523920720558,67,99.56933584362692
20,3.313313313313313,-0.1778297896794014,67,99.56933584362692
20,3.3233233233233235,-0.0900698134768025,67,99.56933584362692
20,3.333333333333333,0.003183033056406,67,99.56933584362692
20,3.3433433433433435,0.0911731227004561,67,99.56933584362692
20,3.353353353353353,0.1941565280675238,67,99.56933584362692
20,3.3633633633633635,0.2591117531657913,67,99.56933584362692
20,3.373373373373373,0.3492159275352099,67,99.56933584362692
20,3.3833833833833835,0.4322505270962551,67,99.56933584362692
20,3.393393393393393,0.4946231256733279,67,99.56933584362692
20,3.4034034034034035,0.5579488324312697,67,99.56933584362692
20,3.413413413413413,0.6300561525717193,67,99.56933584362692
20,3.4234234234234235,0.6624190784996739,67,99.56933584362692
20,3.433433433433433,0.7150617003986602,67,99.56933584362692
20,3.443443443443444,0.7388513259922518,67,99.56933584362692
20,3.4534534534534536,0.7673652148370517,67,99.56933584362692
20,3.463463463463464,0.786523012170831,67,99.56933584362692
20,3.4734734734734736,0.7837815494340767,67,99.56933584362692
20,3.483483483483484,0.7756482811499823,67,99.56933584362692
20,3.4934934934934936,0.764007916550264,67,99.56933584362692
20,3.503503503503504,0.7368502883442306,67,99.56933584362692
20,3.5135135135135136,0.7083024490423689,67,99.56933584362692
20,3.523523523523524,0.6800389247389113,67,99.56933584362692
20,3.5335335335335336,0.6354871662805021,67,99.56933584362692
20,3.543543543543544,0.5900820057286534,67,99.56933584362692
20,3.5535535535535536,0.5473301733899689,67,99.56933584362692
20,3.563563563563564,0.4886893583374231,67,99.56933584362692
20,3.5735735735735736,0.4423023823151894,67,99.56933584362692
20,3.583583583583584,0.3933084839763718,67,99.56933584362692
20,3.5935935935935936,0.345644177140201,67,99.56933584362692
20,3.603603603603604,0.290075478270911,67,99.56933584362692
20,3.6136136136136137,0.2443781403850957,67,99.56933584362692
20,3.623623623623624,0.2039891098767305,67,99.56933584362692
20,3.6336336336336337,0.1649418547291461,67,99.56933584362692
20,3.643643643643644,0.1293818428692001,67,99.56933584362692
20,3.6536536536536537,0.099080401530409,67,99.56933584362692
20,3.663663663663664,0.0784628380861754,67,99.56933584362692
20,3.6736736736736737,0.0499702155123394,67,99.56933584362692
20,3.683683683683684,0.0353165303433685,67,99.56933584362692
20,3.6936936936936937,0.0186117878337927,67,99.56933584362692
20,3.703703703703704,0.0091326847229383,67,99.56933584362692
20,3.7137137137137137,0.0035832317345443,67,99.56933584362692
20,3.723723723723724,0.0017326035322136,67,99.56933584362692
20,3.7337337337337337,0.0005588068241177,67,99.56933584362692
20,3.743743743743744,0.000735288794607,67,99.56933584362692
20,3.7537537537537538,3.4353798516687046e-05,67,99.56933584362692
20,3.763763763763764,-0.0011805137607944,67,99.56933584362692
20,3.7737737737737738,-0.0023921160709538,67,99.56933584362692
20,3.783783783783784,-0.0004982073303991,67,99.56933584362692
20,3.793793793793794,-0.0151585350727652,67,99.56933584362692
20,3.803803803803804,-0.0127373548875561,67,99.56933584362692
20,3.813813813813814,-0.0369171460118953,67,99.56933584362692
20,3.823823823823824,-0.0440923405992975,67,99.56933584362692
20,3.833833833833834,-0.0599466960557319,67,99.56933584362692
20,3.843843843843844,-0.0956453430008027,67,99.56933584362692
20,3.853853853853854,-0.1256542015547711,67,99.56933584362692
20,3.863863863863864,-0.1542033133306153,67,99.56933584362692
20,3.873873873873874,-0.1932632134746185,67,99.56933584362692
20,3.883883883883884,-0.2311589263553457,67,99.56933584362692
20,3.893893893893894,-0.2781910966767626,67,99.56933584362692
20,3.903903903903904,-0.3243744052438337,67,99.56933584362692
20,3.913913913913914,-0.3795317238260402,67,99.56933584362692
20,3.923923923923924,-0.4310411781352289,67,99.56933584362692
20,3.933933933933934,-0.4821821730480546,67,99.56933584362692
20,3.943943943943944,-0.5309257624955454,67,99.56933584362692
20,3.953953953953954,-0.5754190496518964,67,99.56933584362692
20,3.963963963963964,-0.6227849634725683,67,99.56933584362692
20,3.973973973973974,-0.6701403321995568,67,99.56933584362692
20,3.983983983983984,-0.6951609082702063,67,99.56933584362692
20,3.993993993993994,-0.731961284335945,67,99.56933584362692
20,4.004004004004004,-0.7542515782917133,67,99.56933584362692
20,4.014014014014014,-0.7700077096229961,67,99.56933584362692
20,4.024024024024024,-0.7789828364602708,67,99.56933584362692
20,4.034034034034034,-0.7818585487371233,67,99.56933584362692
20,4.044044044044044,-0.7661810345564445,67,99.56933584362692
20,4.054054054054054,-0.7480359861381539,67,99.56933584362692
20,4.064064064064064,-0.7164679430021612,67,99.56933584362692
20,4.074074074074074,-0.6854260866019061,67,99.56933584362692
20,4.084084084084084,-0.6398685973678296,67,99.56933584362692
20,4.094094094094094,-0.5795075210634902,67,99.56933584362692
20,4.104104104104104,-0.5161969345012449,67,99.56933584362692
20,4.114114114114114,-0.4484871365861357,67,99.56933584362692
20,4.124124124124124,-0.3664958737443117,67,99.56933584362692
20,4.134134134134134,-0.3006246379656916,67,99.56933584362692
20,4.144144144144144,-0.1992040653175537,67,99.56933584362692
20,4.1541541541541545,-0.1053316939500301,67,99.56933584362692
20,4.1641641641641645,-0.0227736675384233,67,99.56933584362692
20,4.174174174174175,0.0655348879661597,67,99.56933584362692
20,4.1841841841841845,0.1646761943453183,67,99.56933584362692
20,4.1941941941941945,0.2414912504590706,67,99.56933584362692
20,4.2042042042042045,0.3221359665484567,67,99.56933584362692
20,4.214214214214215,0.4112003733115548,67,99.56933584362692
20,4.2242242242242245,0.4889653638799998,67,99.56933584362692
20,4.2342342342342345,0.5427184529909812,67,99.56933584362692
20,4.2442442442442445,0.609037901296806,67,99.56933584362692
20,4.254254254254255,0.6557807822173312,67,99.56933584362692
20,4.2642642642642645,0.70425723012149,67,99.56933584362692
20,4.2742742742742745,0.7243877806174835,67,99.56933584362692
20,4.2842842842842845,0.7617197771534758,67,99.56933584362692
20,4.294294294294295,0.7707238241167396,67,99.56933584362692
20,4.3043043043043046,0.779850446399889,67,99.56933584362692
20,4.314314314314315,0.7868591038767379,67,99.56933584362692
20,4.324324324324325,0.769935508057024,67,99.56933584362692
20,4.334334334334335,0.7440534691211488,67,99.56933584362692
20,4.344344344344345,0.720057054247696,67,99.56933584362692
20,4.354354354354355,0.6834768944547727,67,99.56933584362692
20,4.364364364364365,0.6468074940935942,67,99.56933584362692
20,4.374374374374375,0.6014046093053899,67,99.56933584362692
20,4.384384384384385,0.5540884613133312,67,99.56933584362692
20,4.394394394394395,0.5061210033516463,67,99.56933584362692
20,4.404404404404405,0.4536110244175511,67,99.56933584362692
20,4.414414414414415,0.402071975361222,67,99.56933584362692
20,4.424424424424425,0.346101311890325,67,99.56933584362692
20,4.434434434434435,0.3122813432348177,67,99.56933584362692
20,4.444444444444445,0.2543087313699825,67,99.56933584362692
20,4.454454454454455,0.2153141757425108,67,99.56933584362692
20,4.464464464464465,0.1733026447574873,67,99.56933584362692
20,4.474474474474475,0.1358403238333846,67,99.56933584362692
20,4.484484484484485,0.1059451438514084,67,99.56933584362692
20,4.494494494494495,0.0823296065332084,67,99.56933584362692
20,4.504504504504505,0.0574820958542717,67,99.56933584362692
20,4.514514514514515,0.0330555375042207,67,99.56933584362692
20,4.524524524524525,0.0224264437407345,67,99.56933584362692
20,4.534534534534535,0.0110433018648613,67,99.56933584362692
20,4.544544544544545,0.0155900496262379,67,99.56933584362692
20,4.554554554554555,0.0108357882440073,67,99.56933584362692
20,4.564564564564565,0.0045416898880123,67,99.56933584362692
20,4.574574574574575,0.0025768915695197,67,99.56933584362692
20,4.584584584584585,-0.0024963067825568,67,99.56933584362692
20,4.594594594594595,0.0059927590830158,67,99.56933584362692
20,4.604604604604605,0.0025536465954508,67,99.56933584362692
20,4.614614614614615,-0.0070252622210637,67,99.56933584362692
20,4.624624624624625,-0.0071075654057357,67,99.56933584362692
20,4.634634634634635,-0.0086339219336822,67,99.56933584362692
20,4.644644644644645,-0.026814471028304,67,99.56933584362692
20,4.654654654654655,-0.0439020025430856,67,99.56933584362692
20,4.664664664664665,-0.0588774551889084,67,99.56933584362692
20,4.674674674674675,-0.0902812628581499,67,99.56933584362692
20,4.684684684684685,-0.1074709272269913,67,99.56933584362692
20,4.694694694694695,-0.150945610294925,67,99.56933584362692
20,4.704704704704705,-0.1807376833740429,67,99.56933584362692
20,4.714714714714715,-0.2336262028362418,67,99.56933584362692
20,4.724724724724725,-0.2699920839543919,67,99.56933584362692
20,4.734734734734735,-0.3177590892505089,67,99.56933584362692
20,4.744744744744745,-0.3649767621054461,67,99.56933584362692
20,4.754754754754755,-0.4107581170353247,67,99.56933584362692
20,4.764764764764765,-0.4716250654016268,67,99.56933584362692
20,4.774774774774775,-0.5191657054380389,67,99.56933584362692
20,4.784784784784785,-0.5710024041289312,67,99.56933584362692
20,4.794794794794795,-0.6116978073520778,67,99.56933584362692
20,4.804804804804805,-0.6548740177454491,67,99.56933584362692
20,4.814814814814815,-0.6992061452607666,67,99.56933584362692
20,4.824824824824825,-0.7206765358065521,67,99.56933584362692
20,4.834834834834835,-0.7484512355570309,67,99.56933584362692
20,4.844844844844845,-0.7640916953359761,67,99.56933584362692
20,4.854854854854855,-0.7744173825672014,67,99.56933584362692
20,4.864864864864865,-0.7732418845298313,67,99.56933584362692
20,4.874874874874875,-0.7763613349962198,67,99.56933584362692
20,4.884884884884885,-0.755343022557532,67,99.56933584362692
20,4.894894894894895,-0.7313720123057197,67,99.56933584362692
20,4.904904904904905,-0.6885035020683464,67,99.56933584362692
20,4.914914914914915,-0.6520633714527063,67,99.56933584362692
20,4.924924924924925,-0.5921381261245058,67,99.56933584362692
20,4.934934934934935,-0.5295083996519736,67,99.56933584362692
20,4.944944944944945,-0.4654184072962721,67,99.56933584362692
20,4.954954954954955,-0.3815667522069489,67,99.56933584362692
20,4.964964964964965,-0.31070061229225,67,99.56933584362692
20,4.974974974974975,-0.2255787475967499,67,99.56933584362692
20,4.984984984984985,-0.134274626939783,67,99.56933584362692
20,4.994994994994995,-0.0536671062877644,67,99.56933584362692
20,5.005005005005005,0.0437216111528184,67,99.56933584362692
20,5.015015015015015,0.1329941711714157,67,99.56933584362692
20,5.025025025025025,0.2204976887919449,67,99.56933584362692
20,5.035035035035035,0.3007814931549854,67,99.56933584362692
20,5.045045045045045,0.3889538946520199,67,99.56933584362692
20,5.055055055055055,0.4671676493608389,67,99.56933584362692
20,5.065065065065065,0.5392242871470764,67,99.56933584362692
20,5.075075075075075,0.5939872815879365,67,99.56933584362692
20,5.085085085085085,0.6453554344483097,67,99.56933584362692
20,5.095095095095095,0.6831534472053443,67,99.56933584362692
20,5.105105105105105,0.7280014361319049,67,99.56933584362692
20,5.115115115115115,0.7530485919874235,67,99.56933584362692
20,5.125125125125125,0.7704904225495739,67,99.56933584362692
20,5.135135135135135,0.7757934991816805,67,99.56933584362692
20,5.145145145145145,0.7738699088014969,67,99.56933584362692
20,5.155155155155155,0.7673717443210585,67,99.56933584362692
20,5.165165165165165,0.7584166812089022,67,99.56933584362692
20,5.175175175175175,0.7213622270619583,67,99.56933584362692
20,5.185185185185185,0.6946751138057143,67,99.56933584362692
20,5.195195195195195,0.6521030956707755,67,99.56933584362692
20,5.205205205205205,0.6100818813664565,67,99.56933584362692
20,5.215215215215215,0.5684932052479676,67,99.56933584362692
20,5.225225225225225,0.5289920258104102,67,99.56933584362692
20,5.235235235235235,0.4736512004057089,67,99.56933584362692
20,5.245245245245245,0.4180174905696263,67,99.56933584362692
20,5.255255255255255,0.3692813640311989,67,99.56933584362692
20,5.265265265265265,0.3225029335982563,67,99.56933584362692
20,5.275275275275275,0.2708376122129873,67,99.56933584362692
20,5.285285285285285,0.2313725022413634,67,99.56933584362692
20,5.295295295295295,0.1777832954188207,67,99.56933584362692
20,5.305305305305305,0.15007800698917,67,99.56933584362692
20,5.315315315315315,0.1156014486247066,67,99.56933584362692
20,5.325325325325325,0.0883604300260821,67,99.56933584362692
20,5.335335335335335,0.0634945465261145,67,99.56933584362692
20,5.345345345345345,0.0397698716746903,67,99.56933584362692
20,5.355355355355355,0.0342001564657867,67,99.56933584362692
20,5.365365365365365,0.0208301168336414,67,99.56933584362692
20,5.375375375375375,0.0081607270067208,67,99.56933584362692
20,5.385385385385385,-0.0001994252309021,67,99.56933584362692
20,5.395395395395395,-0.0010001487615979,67,99.56933584362692
20,5.405405405405405,0.0030036974015264,67,99.56933584362692
20,5.415415415415415,0.002102736605187,67,99.56933584362692
20,5.425425425425425,-0.0085562121759626,67,99.56933584362692
20,5.435435435435435,-0.0037654811290729,67,99.56933584362692
20,5.445445445445445,-0.0058692591699827,67,99.56933584362692
20,5.455455455455455,-0.0083646866469649,67,99.56933584362692
20,5.465465465465465,-0.0133233605811233,67,99.56933584362692
20,5.475475475475475,-0.0186602226147358,67,99.56933584362692
20,5.485485485485485,-0.0402635598047654,67,99.56933584362692
20,5.495495495495495,-0.0598789606263914,67,99.56933584362692
20,5.505505505505505,-0.081377712876586,67,99.56933584362692
20,5.515515515515515,-0.116662391374016,67,99.56933584362692
20,5.525525525525525,-0.1409436520147361,67,99.56933584362692
20,5.535535535535535,-0.1737280559291521,67,99.56933584362692
20,5.545545545545545,-0.2153292157065897,67,99.56933584362692
20,5.555555555555555,-0.2571371942398837,67,99.56933584362692
20,5.565565565565565,-0.3187796557827969,67,99.56933584362692
20,5.575575575575575,-0.3602708100867077,67,99.56933584362692
20,5.585585585585585,-0.4010951541730843,67,99.56933584362692
20,5.595595595595595,-0.4640182358525329,67,99.56933584362692
20,5.605605605605605,-0.5028190239891963,67,99.56933584362692
20,5.615615615615615,-0.546507091169567,67,99.56933584362692
20,5.625625625625625,-0.5928041464778874,67,99.56933584362692
20,5.635635635635635,-0.6427792688221452,67,99.56933584362692
20,5.645645645645645,-0.6941957924470267,67,99.56933584362692
20,5.655655655655655,-0.7142408252243541,67,99.56933584362692
20,5.665665665665665,-0.7475307607543544,67,99.56933584362692
20,5.675675675675675,-0.7671850244579971,67,99.56933584362692
20,5.685685685685685,-0.7751453549712016,67,99.56933584362692
20,5.695695695695696,-0.77394206109661,67,99.56933584362692
20,5.7057057057057055,-0.7699330615163797,67,99.56933584362692
20,5.715715715715716,-0.761219190421771,67,99.56933584362692
20,5.7257257257257255,-0.7421338984596002,67,99.56933584362692
20,5.735735735735736,-0.6955987469243827,67,99.56933584362692
20,5.7457457457457455,-0.6548795254134505,67,99.56933584362692
20,5.755755755755756,-0.6143090865263442,67,99.56933584362692
20,5.7657657657657655,-0.5521143979240001,67,99.56933584362692
20,5.775775775775776,-0.4794233515899437,67,99.56933584362692
20,5.7857857857857855,-0.4025620966468382,67,99.56933584362692
20,5.795795795795796,-0.3249887017279125,67,99.56933584362692
20,5.8058058058058055,-0.2482278185242033,67,99.56933584362692
20,5.815815815815816,-0.1505270466776704,67,99.56933584362692
20,5.8258258258258255,-0.0651977831667827,67,99.56933584362692
20,5.835835835835836,0.0188497168503971,67,99.56933584362692
20,5.8458458458458455,0.1081405444427252,67,99.56933584362692
20,5.855855855855856,0.2141963973523495,67,99.56933584362692
20,5.865865865865866,0.2912412945085129,67,99.56933584362692
20,5.875875875875876,0.3692921697319788,67,99.56933584362692
20,5.885885885885886,0.4436683269509198,67,99.56933584362692
20,5.895895895895896,0.5140234111124132,67,99.56933584362692
20,5.905905905905906,0.5795098518049943,67,99.56933584362692
20,5.915915915915916,0.6348575381890885,67,99.56933584362692
20,5.925925925925926,0.6811290745223627,67,99.56933584362692
20,5.935935935935936,0.7166081504375803,67,99.56933584362692
20,5.945945945945946,0.7456140249281709,67,99.56933584362692
20,5.955955955955956,0.7654236532759958,67,99.56933584362692
20,5.965965965965966,0.7678041952093905,67,99.56933584362692
20,5.975975975975976,0.7719637098188259,67,99.56933584362692
20,5.985985985985986,0.7749471373710073,67,99.56933584362692
20,5.995995995995996,0.7600059701753942,67,99.56933584362692
20,6.006006006006006,0.7334913574902086,67,99.56933584362692
20,6.016016016016016,0.6937653081471671,67,99.56933584362692
20,6.026026026026026,0.6714415804992648,67,99.56933584362692
20,6.036036036036036,0.623261697235333,67,99.56933584362692
20,6.046046046046046,0.5761193158843342,67,99.56933584362692
20,6.056056056056056,0.5347560515594036,67,99.56933584362692
20,6.066066066066066,0.4833841446174806,67,99.56933584362692
20,6.076076076076076,0.4200570314350784,67,99.56933584362692
20,6.086086086086086,0.3781710397166099,67,99.56933584362692
20,6.096096096096096,0.3360530457755256,67,99.56933584362692
20,6.106106106106106,0.2835602812613487,67,99.56933584362692
20,6.116116116116116,0.2340188090873815,67,99.56933584362692
20,6.126126126126126,0.2001335527402295,67,99.56933584362692
20,6.136136136136136,0.1491126296137321,67,99.56933584362692
20,6.146146146146146,0.1211592958278393,67,99.56933584362692
20,6.156156156156156,0.09839299971586,67,99.56933584362692
20,6.166166166166166,0.0593979760140024,67,99.56933584362692
20,6.176176176176176,0.0627552710149771,67,99.56933584362692
20,6.186186186186186,0.0345142027882634,67,99.56933584362692
20,6.196196196196196,0.0219297981671215,67,99.56933584362692
20,6.206206206206206,0.0073664719929899,67,99.56933584362692
20,6.216216216216216,0.0038420210264793,67,99.56933584362692
20,6.226226226226226,0.0012559903939997,67,99.56933584362692
20,6.236236236236236,0.0013931437201223,67,99.56933584362692
20,6.246246246246246,0.0008403486711121,67,99.56933584362692
20,6.256256256256256,0.0091163579141416,67,99.56933584362692
20,6.266266266266266,0.0009793851116536,67,99.56933584362692
20,6.276276276276276,0.0006087854742813,67,99.56933584362692
20,6.286286286286286,-0.0083420722220955,67,99.56933584362692
20,6.296296296296296,-0.0071209784758038,67,99.56933584362692
20,6.306306306306306,-0.0195555746020845,67,99.56933584362692
20,6.316316316316316,-0.0267238850869807,67,99.56933584362692
20,6.326326326326326,-0.0552914787386173,67,99.56933584362692
20,6.336336336336336,-0.0768056983070821,67,99.56933584362692
20,6.346346346346346,-0.0865218764185005,67,99.56933584362692
20,6.356356356356356,-0.1394926751792801,67,99.56933584362692
20,6.366366366366366,-0.164538740755055,67,99.56933584362692
20,6.376376376376376,-0.2076867934957902,67,99.56933584362692
20,6.386386386386386,-0.2509045496768016,67,99.56933584362692
20,6.396396396396396,-0.2918235707587532,67,99.56933584362692
20,6.406406406406406,-0.3405625693290391,67,99.56933584362692
20,6.416416416416417,-0.3930301742788414,67,99.56933584362692
20,6.426426426426427,-0.4429870457635058,67,99.56933584362692
20,6.436436436436437,-0.4907666334326597,67,99.56933584362692
20,6.446446446446447,-0.5437225672762374,67,99.56933584362692
20,6.456456456456457,-0.5917539672622164,67,99.56933584362692
20,6.466466466466467,-0.627739054081925,67,99.56933584362692
20,6.476476476476477,-0.6789671140080247,67,99.56933584362692
20,6.486486486486487,-0.7125032411874936,67,99.56933584362692
20,6.496496496496497,-0.743516852313737,67,99.56933584362692
20,6.506506506506507,-0.7629740738675376,67,99.56933584362692
20,6.516516516516517,-0.774588280349857,67,99.56933584362692
20,6.526526526526527,-0.7788970201652143,67,99.56933584362692
20,6.536536536536537,-0.7834409921539375,67,99.56933584362692
20,6.546546546546547,-0.7504306455218243,67,99.56933584362692
20,6.556556556556557,-0.7364560309458726,67,99.56933584362692
20,6.566566566566567,-0.710171404054299,67,99.56933584362692
20,6.576576576576577,-0.6764134754166665,67,99.56933584362692
20,6.586586586586587,-0.6226625937264189,67,99.56933584362692
20,6.596596596596597,-0.5648297765184067,67,99.56933584362692
20,6.606606606606607,-0.4968718038010483,67,99.56933584362692
20,6.616616616616617,-0.4208827127920149,67,99.56933584362692
20,6.626626626626627,-0.3551134285003958,67,99.56933584362692
20,6.636636636636637,-0.2698356621861875,67,99.56933584362692
20,6.646646646646647,-0.1848332024363115,67,99.56933584362692
20,6.656656656656657,-0.0932022342151796,67,99.56933584362692
20,6.666666666666667,-0.0040401754554107,67,99.56933584362692
20,6.676676676676677,0.0953123594997069,67,99.56933584362692
20,6.686686686686687,0.1792798189605368,67,99.56933584362692
20,6.696696696696697,0.2658984370614195,67,99.56933584362692
20,6.706706706706707,0.3500090414193818,67,99.56933584362692
20,6.716716716716717,0.4249850994900544,67,99.56933584362692
20,6.726726726726727,0.4931802751316179,67,99.56933584362692
20,6.736736736736737,0.5668869470750872,67,99.56933584362692
20,6.746746746746747,0.6187521993743123,67,99.56933584362692
20,6.756756756756757,0.6805348575968163,67,99.56933584362692
20,6.766766766766767,0.6998933831886447,67,99.56933584362692
20,6.776776776776777,0.7449592472556431,67,99.56933584362692
20,6.786786786786787,0.757813795406731,67,99.56933584362692
20,6.796796796796797,0.7831262765746763,67,99.56933584362692
20,6.806806806806807,0.7764021358767652,67,99.56933584362692
20,6.816816816816817,0.7723732063518925,67,99.56933584362692
20,6.826826826826827,0.7620446990346315,67,99.56933584362692
20,6.836836836836837,0.7318238923163429,67,99.56933584362692
20,6.846846846846847,0.7076579656650196,67,99.56933584362692
20,6.856856856856857,0.6765516451637066,67,99.56933584362692
20,6.866866866866867,0.6376616424398942,67,99.56933584362692
20,6.876876876876877,0.5989119456219961,67,99.56933584362692
20,6.886886886886887,0.5389853810881923,67,99.56933584362692
20,6.896896896896897,0.4944646321666123,67,99.56933584362692
20,6.906906906906907,0.4503658112106026,67,99.56933584362692
20,6.916916916916917,0.3906724678243349,67,99.56933584362692
20,6.926926926926927,0.3435835077962233,67,99.56933584362692
20,6.936936936936937,0.2943893244774885,67,99.56933584362692
20,6.946946946946947,0.2451103203457373,67,99.56933584362692
20,6.956956956956957,0.2114758146970669,67,99.56933584362692
20,6.966966966966967,0.1730586035109538,67,99.56933584362692
20,6.976976976976977,0.1347768159379476,67,99.56933584362692
20,6.986986986986987,0.101559893712225,67,99.56933584362692
20,6.996996996996997,0.0753397285712149,67,99.56933584362692
20,7.007007007007007,0.0648770983803074,67,99.56933584362692
20,7.017017017017017,0.0287821860194572,67,99.56933584362692
20,7.027027027027027,0.0100531224742166,67,99.56933584362692
20,7.037037037037037,0.01435363053723,67,99.56933584362692
20,7.047047047047047,0.0093529096961207,67,99.56933584362692
20,7.057057057057057,0.0067246732019337,67,99.56933584362692
20,7.067067067067067,-0.0044969551863192,67,99.56933584362692
20,7.077077077077077,-0.0011348959602537,67,99.56933584362692
20,7.087087087087087,0.005152876527806,67,99.56933584362692
20,7.097097097097097,0.0003894345731092,67,99.56933584362692
20,7.107107107107107,0.0044906356930059,67,99.56933584362692
20,7.117117117117117,-0.0059065033139683,67,99.56933584362692
20,7.127127127127127,-0.0075129330786072,67,99.56933584362692
20,7.137137137137137,-0.0223468676068162,67,99.56933584362692
20,7.147147147147147,-0.0247478082292052,67,99.56933584362692
20,7.157157157157157,-0.043291326558808,67,99.56933584362692
20,7.167167167167167,-0.07246021068874,67,99.56933584362692
20,7.177177177177177,-0.0997566574613599,67,99.56933584362692
20,7.187187187187187,-0.1220987386028766,67,99.56933584362692
20,7.197197197197197,-0.1634673773866433,67,99.56933584362692
20,7.207207207207207,-0.1944050352769966,67,99.56933584362692
20,7.217217217217217,-0.2447679897935022,67,99.56933584362692
20,7.227227227227227,-0.2854176334174212,67,99.56933584362692
20,7.237237237237237,-0.3325318405274752,67,99.56933584362692
20,7.247247247247247,-0.3752235806726774,67,99.56933584362692
20,7.257257257257257,-0.4419973627776152,67,99.56933584362692
20,7.267267267267267,-0.4830899560999848,67,99.56933584362692
20,7.277277277277277,-0.5354785977709452,67,99.56933584362692
20,7.287287287287287,-0.5780667682300956,67,99.56933584362692
20,7.297297297297297,-0.6273027037722594,67,99.56933584362692
20,7.307307307307307,-0.662206307644773,67,99.56933584362692
20,7.317317317317317,-0.6988550071728753,67,99.56933584362692
20,7.327327327327327,-0.7337574296723842,67,99.56933584362692
20,7.337337337337337,-0.7607606656701188,67,99.56933584362692
20,7.347347347347347,-0.7679779886881798,67,99.56933584362692
20,7.357357357357357,-0.7826354152217486,67,99.56933584362692
20,7.367367367367367,-0.7790830571515406,67,99.56933584362692
20,7.377377377377377,-0.7615981492036973,67,99.56933584362692
20,7.387387387387387,-0.7537223924509331,67,99.56933584362692
20,7.397397397397397,-0.7261688008867642,67,99.56933584362692
20,7.407407407407407,-0.676391056464787,67,99.56933584362692
20,7.4174174174174174,-0.6298243130924488,67,99.56933584362692
20,7.4274274274274275,-0.5711558740556125,67,99.56933584362692
20,7.437437437437437,-0.5257482070191312,67,99.56933584362692
20,7.447447447447447,-0.4483376244508244,67,99.56933584362692
20,7.4574574574574575,-0.3619323455851455,67,99.56933584362692
20,7.4674674674674675,-0.2796762521393456,67,99.56933584362692
20,7.477477477477477,-0.1979503953847819,67,99.56933584362692
20,7.487487487487487,-0.1099267476699416,67,99.56933584362692
20,7.4974974974974975,-0.0289674229318653,67,99.56933584362692
20,7.5075075075075075,0.0678553377469695,67,99.56933584362692
20,7.517517517517517,0.1638289989326502,67,99.56933584362692
20,7.527527527527527,0.2357540201569367,67,99.56933584362692
20,7.5375375375375375,0.3299421348299017,67,99.56933584362692
20,7.5475475475475475,0.4125155971240195,67,99.56933584362692
20,7.557557557557557,0.480974377487056,67,99.56933584362692
20,7.567567567567567,0.5455058130036268,67,99.56933584362692
20,7.5775775775775776,0.6157605902738421,67,99.56933584362692
20,7.587587587587588,0.656963485565604,67,99.56933584362692
20,7.597597597597598,0.694712832150823,67,99.56933584362692
20,7.607607607607608,0.7316789853372156,67,99.56933584362692
20,7.617617617617618,0.768411352412608,67,99.56933584362692
20,7.627627627627628,0.7839745968496571,67,99.56933584362692
20,7.637637637637638,0.779122690053983,67,99.56933584362692
20,7.647647647647648,0.7725662505773188,67,99.56933584362692
20,7.657657657657658,0.7613270739638387,67,99.56933584362692
20,7.667667667667668,0.7385107910642796,67,99.56933584362692
20,7.677677677677678,0.7155775610324125,67,99.56933584362692
20,7.687687687687688,0.6880336901318185,67,99.56933584362692
20,7.697697697697698,0.6518735794164732,67,99.56933584362692
20,7.707707707707708,0.6055849850370705,67,99.56933584362692
20,7.717717717717718,0.5543713686261574,67,99.56933584362692
20,7.727727727727728,0.5095294163319973,67,99.56933584362692
20,7.737737737737738,0.4535878287272691,67,99.56933584362692
20,7.747747747747748,0.4022944611703338,67,99.56933584362692
20,7.757757757757758,0.3550472788528618,67,99.56933584362692
20,7.767767767767768,0.3045452158726586,67,99.56933584362692
20,7.777777777777778,0.2637145417489371,67,99.56933584362692
20,7.787787787787788,0.2202080221429768,67,99.56933584362692
20,7.797797797797798,0.1812477707462364,67,99.56933584362692
20,7.807807807807808,0.1354290695903831,67,99.56933584362692
20,7.817817817817818,0.1096632099404316,67,99.56933584362692
20,7.827827827827828,0.0857487906661965,67,99.56933584362692
20,7.837837837837838,0.0607625335278391,67,99.56933584362692
20,7.847847847847848,0.03754508777423,67,99.56933584362692
20,7.857857857857858,0.0322627529160634,67,99.56933584362692
20,7.867867867867868,0.0117797503441937,67,99.56933584362692
20,7.877877877877878,0.0048924913919103,67,99.56933584362692
20,7.887887887887888,0.0069840283177576,67,99.56933584362692
20,7.897897897897898,0.0006935071108979,67,99.56933584362692
20,7.907907907907908,7.9236700438833e-05,67,99.56933584362692
20,7.917917917917918,0.0049194144425741,67,99.56933584362692
20,7.927927927927928,0.0011946573659921,67,99.56933584362692
20,7.937937937937938,-0.0008306800371715,67,99.56933584362692
20,7.947947947947948,-0.0055371653160733,67,99.56933584362692
20,7.957957957957958,-0.0028486478557228,67,99.56933584362692
20,7.967967967967968,-0.0203070306217124,67,99.56933584362692
20,7.977977977977978,-0.0311904499026869,67,99.56933584362692
20,7.987987987987988,-0.03829473317246,67,99.56933584362692
20,7.997997997997998,-0.0648027501888894,67,99.56933584362692
20,8.008008008008009,-0.0852691264662131,67,99.56933584362692
20,8.018018018018019,-0.1148066087884554,67,99.56933584362692
20,8.028028028028029,-0.1502249566600418,67,99.56933584362692
20,8.038038038038039,-0.1880851593208096,67,99.56933584362692
20,8.048048048048049,-0.2215515945383493,67,99.56933584362692
20,8.058058058058059,-0.2667523979188412,67,99.56933584362692
20,8.068068068068069,-0.3115942047220131,67,99.56933584362692
20,8.078078078078079,-0.367289970665361,67,99.56933584362692
20,8.088088088088089,-0.4148543782089269,67,99.56933584362692
20,8.098098098098099,-0.4673477304286437,67,99.56933584362692
20,8.108108108108109,-0.5229870947363716,67,99.56933584362692
20,8.118118118118119,-0.5629043212562533,67,99.56933584362692
20,8.128128128128129,-0.6129590397035161,67,99.56933584362692
20,8.138138138138139,-0.6582319838564716,67,99.56933584362692
20,8.148148148148149,-0.684441070842826,67,99.56933584362692
20,8.158158158158159,-0.728061001806846,67,99.56933584362692
20,8.168168168168169,-0.7477625037780488,67,99.56933584362692
20,8.178178178178179,-0.7687465214934093,67,99.56933584362692
20,8.188188188188189,-0.7898017611738307,67,99.56933584362692
20,8.198198198198199,-0.7795351357228575,67,99.56933584362692
20,8.208208208208209,-0.7763478544049294,67,99.56933584362692
20,8.218218218218219,-0.7559729616029299,67,99.56933584362692
20,8.228228228228229,-0.7308216684528566,67,99.56933584362692
20,8.238238238238239,-0.6918450238502468,67,99.56933584362692
20,8.248248248248249,-0.6481603978277423,67,99.56933584362692
20,8.258258258258259,-0.5987096869062932,67,99.56933584362692
20,8.268268268268269,-0.5313546003857872,67,99.56933584362692
20,8.278278278278279,-0.4720708028144149,67,99.56933584362692
20,8.288288288288289,-0.388336028289987,67,99.56933584362692
20,8.298298298298299,-0.3136110760703332,67,99.56933584362692
20,8.308308308308309,-0.2227708697500466,67,99.56933584362692
20,8.318318318318319,-0.1386897107267408,67,99.56933584362692
20,8.328328328328329,-0.043345533605413,67,99.56933584362692
20,8.338338338338339,0.045734932156193,67,99.56933584362692
20,8.348348348348349,0.1433420550342839,67,99.56933584362692
20,8.358358358358359,0.2201748703669503,67,99.56933584362692
20,8.368368368368369,0.3072744998554909,67,99.56933584362692
20,8.378378378378379,0.3891748515273883,67,99.56933584362692
20,8.388388388388389,0.4570686709070138,67,99.56933584362692
20,8.398398398398399,0.5217028298294017,67,99.56933584362692
20,8.408408408408409,0.5951437559558552,67,99.56933584362692
20,8.418418418418419,0.6421733944821855,67,99.56933584362692
20,8.428428428428429,0.6976815683772133,67,99.56933584362692
20,8.438438438438439,0.7372388095311795,67,99.56933584362692
20,8.448448448448449,0.7579561896202462,67,99.56933584362692
20,8.458458458458459,0.7658245729461384,67,99.56933584362692
20,8.468468468468469,0.7803758312297779,67,99.56933584362692
20,8.478478478478479,0.7661544736217505,67,99.56933584362692
20,8.488488488488489,0.7731862561887128,67,99.56933584362692
20,8.498498498498499,0.7513793156317587,67,99.56933584362692
20,8.508508508508509,0.7343020078021685,67,99.56933584362692
20,8.518518518518519,0.6806240079782295,67,99.56933584362692
20,8.528528528528529,0.6562207736317093,67,99.56933584362692
20,8.538538538538539,0.6091189231399106,67,99.56933584362692
20,8.548548548548549,0.5709928276838999,67,99.56933584362692
20,8.558558558558559,0.5213757422474002,67,99.56933584362692
20,8.568568568568569,0.4695950513149833,67,99.56933584362692
20,8.578578578578579,0.4223781780158336,67,99.56933584362692
20,8.588588588588589,0.3673179026654991,67,99.56933584362692
20,8.598598598598599,0.3275711904694861,67,99.56933584362692
20,8.608608608608609,0.2666353545518368,67,99.56933584362692
20,8.618618618618619,0.2247033785272012,67,99.56933584362692
20,8.62862862862863,0.1936822243446958,67,99.56933584362692
20,8.63863863863864,0.1458664140503236,67,99.56933584362692
20,8.64864864864865,0.1128392210421282,67,99.56933584362692
20,8.65865865865866,0.0878095987181444,67,99.56933584362692
20,8.66866866866867,0.0596762651646707,67,99.56933584362692
20,8.67867867867868,0.0504642510278176,67,99.56933584362692
20,8.68868868868869,0.0266014060891739,67,99.56933584362692
20,8.6986986986987,0.0266645543950621,67,99.56933584362692
20,8.70870870870871,0.0075634965640179,67,99.56933584362692
20,8.71871871871872,-0.0003339772491257,67,99.56933584362692
20,8.72872872872873,-0.0016565760501523,67,99.56933584362692
20,8.73873873873874,0.0032675409639204,67,99.56933584362692
20,8.74874874874875,0.0030359625025424,67,99.56933584362692
20,8.75875875875876,0.0010218742762374,67,99.56933584362692
20,8.76876876876877,0.0003153200710091,67,99.56933584362692
20,8.77877877877878,-0.0055208547812301,67,99.56933584362692
20,8.78878878878879,-0.0025510845749804,67,99.56933584362692
20,8.7987987987988,-0.0172064032065295,67,99.56933584362692
20,8.80880880880881,-0.0255078786686396,67,99.56933584362692
20,8.81881881881882,-0.0345191594824289,67,99.56933584362692
20,8.82882882882883,-0.0547962148786825,67,99.56933584362692
20,8.83883883883884,-0.0760681543299922,67,99.56933584362692
20,8.84884884884885,-0.1030005279978483,67,99.56933584362692
20,8.85885885885886,-0.138672254454312,67,99.56933584362692
20,8.86886886886887,-0.1745123517186853,67,99.56933584362692
20,8.87887887887888,-0.2144822492922918,67,99.56933584362692
20,8.88888888888889,-0.2678529104962697,67,99.56933584362692
20,8.8988988988989,-0.3167044690321524,67,99.56933584362692
20,8.90890890890891,-0.3553568512677277,67,99.56933584362692
20,8.91891891891892,-0.4019837739071905,67,99.56933584362692
20,8.92892892892893,-0.456064838455032,67,99.56933584362692
20,8.93893893893894,-0.5052164262528096,67,99.56933584362692
20,8.94894894894895,-0.5525530872646466,67,99.56933584362692
20,8.95895895895896,-0.6015915857421135,67,99.56933584362692
20,8.96896896896897,-0.6541663775541392,67,99.56933584362692
20,8.97897897897898,-0.6804493907052833,67,99.56933584362692
20,8.98898898898899,-0.7228672494827545,67,99.56933584362692
20,8.998998998999,-0.7428496957142255,67,99.56933584362692
20,9.00900900900901,-0.761592210429072,67,99.56933584362692
20,9.01901901901902,-0.7842961124074284,67,99.56933584362692
20,9.02902902902903,-0.7808296482701572,67,99.56933584362692
20,9.03903903903904,-0.7715642999738772,67,99.56933584362692
20,9.04904904904905,-0.7515225950758476,67,99.56933584362692
20,9.05905905905906,-0.7362286172820265,67,99.56933584362692
20,9.06906906906907,-0.6966074644959543,67,99.56933584362692
20,9.07907907907908,-0.6597894453292491,67,99.56933584362692
20,9.08908908908909,-0.5982398117827115,67,99.56933584362692
20,9.0990990990991,-0.5447190226263006,67,99.56933584362692
20,9.10910910910911,-0.4794534425724315,67,99.56933584362692
20,9.11911911911912,-0.4139769190000318,67,99.56933584362692
20,9.12912912912913,-0.3332261501207127,67,99.56933584362692
20,9.13913913913914,-0.2444419114824542,67,99.56933584362692
20,9.14914914914915,-0.1528584381348788,67,99.56933584362692
20,9.15915915915916,-0.0673371530908551,67,99.56933584362692
20,9.16916916916917,0.0198566637806464,67,99.56933584362692
20,9.17917917917918,0.1136186456005605,67,99.56933584362692
20,9.18918918918919,0.2029854340240885,67,99.56933584362692
20,9.1991991991992,0.2832648777153218,67,99.56933584362692
20,9.20920920920921,0.3621229855829415,67,99.56933584362692
20,9.21921921921922,0.4438836946373335,67,99.56933584362692
20,9.22922922922923,0.5263764482407642,67,99.56933584362692
20,9.23923923923924,0.5834319754451531,67,99.56933584362692
20,9.24924924924925,0.6374983412499968,67,99.56933584362692
20,9.25925925925926,0.6790785738381434,67,99.56933584362692
20,9.26926926926927,0.7297726835723334,67,99.56933584362692
20,9.27927927927928,0.7464745736219164,67,99.56933584362692
20,9.28928928928929,0.7657194881067607,67,99.56933584362692
20,9.2992992992993,0.7850250066970467,67,99.56933584362692
20,9.30930930930931,0.7826400385940171,67,99.56933584362692
20,9.31931931931932,0.7707437079028263,67,99.56933584362692
20,9.32932932932933,0.7537413234895415,67,99.56933584362692
20,9.33933933933934,0.7389073118230155,67,99.56933584362692
20,9.34934934934935,0.6979625352783626,67,99.56933584362692
20,9.35935935935936,0.6590663727365327,67,99.56933584362692
20,9.36936936936937,0.6207917305114588,67,99.56933584362692
20,9.37937937937938,0.5844961662052316,67,99.56933584362692
20,9.38938938938939,0.5353421155912924,67,99.56933584362692
20,9.3993993993994,0.4869438919498526,67,99.56933584362692
20,9.40940940940941,0.4350489665245599,67,99.56933584362692
20,9.41941941941942,0.379575262163892,67,99.56933584362692
20,9.42942942942943,0.3374089707549988,67,99.56933584362692
20,9.43943943943944,0.287279359193469,67,99.56933584362692
20,9.44944944944945,0.243479625988767,67,99.56933584362692
20,9.45945945945946,0.1890398556124712,67,99.56933584362692
20,9.46946946946947,0.1548790054162775,67,99.56933584362692
20,9.47947947947948,0.1185552163970562,67,99.56933584362692
20,9.48948948948949,0.0882015337791319,67,99.56933584362692
20,9.4994994994995,0.0770547660586514,67,99.56933584362692
20,9.50950950950951,0.0509886259896367,67,99.56933584362692
20,9.51951951951952,0.0366559827195827,67,99.56933584362692
20,9.52952952952953,0.0240623020438509,67,99.56933584362692
20,9.53953953953954,0.0038741983726685,67,99.56933584362692
20,9.54954954954955,0.0064427791578775,67,99.56933584362692
20,9.55955955955956,0.0039908504898693,67,99.56933584362692
20,9.56956956956957,0.0074513887824791,67,99.56933584362692
20,9.57957957957958,-0.0003424236396646,67,99.56933584362692
20,9.58958958958959,9.365442224737054e-05,67,99.56933584362692
20,9.5995995995996,-0.0058482178517916,67,99.56933584362692
20,9.60960960960961,-0.0063074660940414,67,99.56933584362692
20,9.61961961961962,-0.009657121670866,67,99.56933584362692
20,9.62962962962963,-0.0154997134252884,67,99.56933584362692
20,9.63963963963964,-0.0219722624011885,67,99.56933584362692
20,9.64964964964965,-0.041084986957207,67,99.56933584362692
20,9.65965965965966,-0.045414607028452,67,99.56933584362692
20,9.66966966966967,-0.0751263145850945,67,99.56933584362692
20,9.67967967967968,-0.1026390843087406,67,99.56933584362692
20,9.68968968968969,-0.1333162553033118,67,99.56933584362692
20,9.6996996996997,-0.1628769321286422,67,99.56933584362692
20,9.70970970970971,-0.2121592356198803,67,99.56933584362692
20,9.71971971971972,-0.2516154219713336,67,99.56933584362692
20,9.72972972972973,-0.2790409838517778,67,99.56933584362692
20,9.73973973973974,-0.3347501871421411,67,99.56933584362692
20,9.74974974974975,-0.3899548738674141,67,99.56933584362692
20,9.75975975975976,-0.4424691608435996,67,99.56933584362692
20,9.76976976976977,-0.496507620428767,67,99.56933584362692
20,9.77977977977978,-0.5366898137447637,67,99.56933584362692
20,9.78978978978979,-0.5887246540484551,67,99.56933584362692
20,9.7997997997998,-0.6369739643432608,67,99.56933584362692
20,9.80980980980981,-0.6736906632512383,67,99.56933584362692
20,9.81981981981982,-0.7150375211687124,67,99.56933584362692
20,9.82982982982983,-0.7406753516079585,67,99.56933584362692
20,9.83983983983984,-0.7597225324577754,67,99.56933584362692
20,9.84984984984985,-0.7758394466039197,67,99.56933584362692
20,9.85985985985986,-0.7828021233598431,67,99.56933584362692
20,9.86986986986987,-0.7740875712361215,67,99.56933584362692
20,9.87987987987988,-0.7690312411206786,67,99.56933584362692
20,9.88988988988989,-0.7425507006606427,67,99.56933584362692
20,9.8998998998999,-0.715779369446072,67,99.56933584362692
20,9.90990990990991,-0.6665918090214656,67,99.56933584362692
20,9.91991991991992,-0.6187672905918494,67,99.56933584362692
20,9.92992992992993,-0.5722849452048974,67,99.56933584362692
20,9.93993993993994,-0.4941070467165717,67,99.56933584362692
20,9.94994994994995,-0.4312180100445348,67,99.56933584362692
20,9.95995995995996,-0.3446926489013943,67,99.56933584362692
20,9.96996996996997,-0.2596664102168167,67,99.56933584362692
20,9.97997997997998,-0.1828012552545614,67,99.56933584362692
20,9.98998998998999,-0.0946818172910192,67,99.56933584362692
20,10.0,0.0034154312832159,67,99.56933584362692
