Subject_ID,Time,PPG,HR,HRV
18,0.0,-0.0034213535085251,92,37.07977298363973
18,0.01001001001001,0.0961894155031177,92,37.07977298363973
18,0.02002002002002,0.1719366512647163,92,37.07977298363973
18,0.03003003003003,0.2685220865113088,92,37.07977298363973
18,0.04004004004004,0.3446639086460488,92,37.07977298363973
18,0.05005005005005,0.4316624214618157,92,37.07977298363973
18,0.06006006006006,0.4953695825038819,92,37.07977298363973
18,0.07007007007007,0.5709515943629571,92,37.07977298363973
18,0.08008008008008,0.6255170464567359,92,37.07977298363973
18,0.09009009009009,0.6625289929357813,92,37.07977298363973
18,0.1001001001001,0.7066074406670492,92,37.07977298363973
18,0.1101101101101101,0.7388073850105767,92,37.07977298363973
18,0.1201201201201201,0.7644146245928523,92,37.07977298363973
18,0.1301301301301301,0.7767001622042724,92,37.07977298363973
18,0.1401401401401401,0.7850580761810794,92,37.07977298363973
18,0.1501501501501501,0.7657129428359752,92,37.07977298363973
18,0.1601601601601601,0.7525476257324084,92,37.07977298363973
18,0.1701701701701701,0.7374724232791005,92,37.07977298363973
18,0.1801801801801801,0.7095232078795348,92,37.07977298363973
18,0.1901901901901901,0.6741112916284021,92,37.07977298363973
18,0.2002002002002001,0.6382807159543991,92,37.07977298363973
18,0.2102102102102102,0.5871686839991362,92,37.07977298363973
18,0.2202202202202202,0.5449184766558612,92,37.07977298363973
18,0.2302302302302302,0.499253168655235,92,37.07977298363973
18,0.2402402402402402,0.4336175494529148,92,37.07977298363973
18,0.2502502502502503,0.3902103073463012,92,37.07977298363973
18,0.2602602602602603,0.3373830093415398,92,37.07977298363973
18,0.2702702702702703,0.2910476104401512,92,37.07977298363973
18,0.2802802802802803,0.2445513312408735,92,37.07977298363973
18,0.2902902902902903,0.2112719208661375,92,37.07977298363973
18,0.3003003003003003,0.162692389183131,92,37.07977298363973
18,0.3103103103103103,0.1295512964715158,92,37.07977298363973
18,0.3203203203203203,0.0919279454035088,92,37.07977298363973
18,0.3303303303303303,0.0721288756321772,92,37.07977298363973
18,0.3403403403403403,0.0495251837879704,92,37.07977298363973
18,0.3503503503503503,0.0330524908959134,92,37.07977298363973
18,0.3603603603603603,0.0210919334751732,92,37.07977298363973
18,0.3703703703703703,0.0133359039311242,92,37.07977298363973
18,0.3803803803803803,0.0110781894549659,92,37.07977298363973
18,0.3903903903903903,0.0089250471648066,92,37.07977298363973
18,0.4004004004004003,-0.000628222233395,92,37.07977298363973
18,0.4104104104104104,0.0033201789586984,92,37.07977298363973
18,0.4204204204204204,-0.0038053783246818,92,37.07977298363973
18,0.4304304304304304,0.0008542666191041,92,37.07977298363973
18,0.4404404404404404,-0.0077994903400482,92,37.07977298363973
18,0.4504504504504504,-0.0054616360114892,92,37.07977298363973
18,0.4604604604604604,-0.0239148248071038,92,37.07977298363973
18,0.4704704704704704,-0.0139784518360738,92,37.07977298363973
18,0.4804804804804805,-0.0447951869387969,92,37.07977298363973
18,0.4904904904904905,-0.0464127186438303,92,37.07977298363973
18,0.5005005005005005,-0.0678834776571168,92,37.07977298363973
18,0.5105105105105106,-0.09651586536124,92,37.07977298363973
18,0.5205205205205206,-0.1255178367163191,92,37.07977298363973
18,0.5305305305305306,-0.163941030848011,92,37.07977298363973
18,0.5405405405405406,-0.1979176873839066,92,37.07977298363973
18,0.5505505505505506,-0.2363868485222431,92,37.07977298363973
18,0.5605605605605606,-0.2812507005074968,92,37.07977298363973
18,0.5705705705705706,-0.3325167061831627,92,37.07977298363973
18,0.5805805805805806,-0.3764927044943362,92,37.07977298363973
18,0.5905905905905906,-0.4260822784495138,92,37.07977298363973
18,0.6006006006006006,-0.4733074721423981,92,37.07977298363973
18,0.6106106106106106,-0.5333788897516939,92,37.07977298363973
18,0.6206206206206206,-0.5789208767907928,92,37.07977298363973
18,0.6306306306306306,-0.621874800767335,92,37.07977298363973
18,0.6406406406406406,-0.6639461677749591,92,37.07977298363973
18,0.6506506506506506,-0.6978736364675795,92,37.07977298363973
18,0.6606606606606606,-0.7284225888673223,92,37.07977298363973
18,0.6706706706706707,-0.7573523784555986,92,37.07977298363973
18,0.6806806806806807,-0.7766691503518716,92,37.07977298363973
18,0.6906906906906907,-0.7761737271548137,92,37.07977298363973
18,0.7007007007007007,-0.7785219863186454,92,37.07977298363973
18,0.7107107107107107,-0.767608515812248,92,37.07977298363973
18,0.7207207207207207,-0.7421951129634607,92,37.07977298363973
18,0.7307307307307307,-0.7210361362424699,92,37.07977298363973
18,0.7407407407407407,-0.6747049884133656,92,37.07977298363973
18,0.7507507507507507,-0.6322499014403035,92,37.07977298363973
18,0.7607607607607607,-0.5879919253216929,92,37.07977298363973
18,0.7707707707707707,-0.5168107232365975,92,37.07977298363973
18,0.7807807807807807,-0.4515889037072434,92,37.07977298363973
18,0.7907907907907907,-0.370857641955557,92,37.07977298363973
18,0.8008008008008007,-0.2947531286455499,92,37.07977298363973
18,0.8108108108108109,-0.1945326951213946,92,37.07977298363973
18,0.8208208208208209,-0.1101807413230814,92,37.07977298363973
18,0.8308308308308309,-0.0208389396313426,92,37.07977298363973
18,0.8408408408408409,0.0672307397146126,92,37.07977298363973
18,0.8508508508508509,0.1610262215705172,92,37.07977298363973
18,0.8608608608608609,0.2489495828492608,92,37.07977298363973
18,0.8708708708708709,0.3261034855979818,92,37.07977298363973
18,0.8808808808808809,0.4059226839545765,92,37.07977298363973
18,0.8908908908908909,0.4833540996577871,92,37.07977298363973
18,0.9009009009009008,0.5463234753369474,92,37.07977298363973
18,0.9109109109109108,0.6045976099669423,92,37.07977298363973
18,0.9209209209209208,0.6613282645795724,92,37.07977298363973
18,0.9309309309309308,0.7013985592831976,92,37.07977298363973
18,0.9409409409409408,0.7309983614475964,92,37.07977298363973
18,0.950950950950951,0.7572569363819397,92,37.07977298363973
18,0.960960960960961,0.7692841855111501,92,37.07977298363973
18,0.970970970970971,0.7817620867005763,92,37.07977298363973
18,0.980980980980981,0.7738539063768881,92,37.07977298363973
18,0.990990990990991,0.7608062642486149,92,37.07977298363973
18,1.001001001001001,0.7495987194881719,92,37.07977298363973
18,1.011011011011011,0.7126001996059163,92,37.07977298363973
18,1.021021021021021,0.6789019521251703,92,37.07977298363973
18,1.031031031031031,0.641382026572532,92,37.07977298363973
18,1.0410410410410411,0.6074311636173636,92,37.07977298363973
18,1.0510510510510511,0.5456119899631432,92,37.07977298363973
18,1.0610610610610611,0.4998245355472895,92,37.07977298363973
18,1.0710710710710711,0.4629849064537361,92,37.07977298363973
18,1.0810810810810811,0.4055193167528321,92,37.07977298363973
18,1.0910910910910911,0.3597426897013279,92,37.07977298363973
18,1.1011011011011012,0.2991615707402961,92,37.07977298363973
18,1.1111111111111112,0.2677432561251797,92,37.07977298363973
18,1.1211211211211212,0.2110906017565276,92,37.07977298363973
18,1.1311311311311312,0.169452243362806,92,37.07977298363973
18,1.1411411411411412,0.1299381804497536,92,37.07977298363973
18,1.1511511511511512,0.0965123588588863,92,37.07977298363973
18,1.1611611611611612,0.0778488015468901,92,37.07977298363973
18,1.1711711711711712,0.0471099146358707,92,37.07977298363973
18,1.1811811811811812,0.0343293688222457,92,37.07977298363973
18,1.1911911911911912,0.0289810643018483,92,37.07977298363973
18,1.2012012012012012,0.0161394754173166,92,37.07977298363973
18,1.2112112112112112,0.0047803027427147,92,37.07977298363973
18,1.2212212212212212,0.0033577414153906,92,37.07977298363973
18,1.2312312312312312,-0.0010272454945322,92,37.07977298363973
18,1.2412412412412412,0.0036220557197314,92,37.07977298363973
18,1.2512512512512513,-0.0024667344772883,92,37.07977298363973
18,1.2612612612612613,0.0051425591263197,92,37.07977298363973
18,1.2712712712712713,0.0007907676763465,92,37.07977298363973
18,1.2812812812812813,-0.0003979992595946,92,37.07977298363973
18,1.2912912912912913,-0.0032521078231721,92,37.07977298363973
18,1.3013013013013013,-0.0205716529000989,92,37.07977298363973
18,1.3113113113113113,-0.0266064457436891,92,37.07977298363973
18,1.3213213213213213,-0.0444275717732193,92,37.07977298363973
18,1.3313313313313313,-0.0554149470322844,92,37.07977298363973
18,1.3413413413413413,-0.0809602233493821,92,37.07977298363973
18,1.351351351351351,-0.110516969645942,92,37.07977298363973
18,1.361361361361361,-0.1473717624349131,92,37.07977298363973
18,1.371371371371371,-0.1932148331449487,92,37.07977298363973
18,1.3813813813813811,-0.219495570347437,92,37.07977298363973
18,1.3913913913913911,-0.274267642986374,92,37.07977298363973
18,1.4014014014014011,-0.3134390556883119,92,37.07977298363973
18,1.4114114114114114,-0.3695809096865403,92,37.07977298363973
18,1.4214214214214214,-0.4167471361495034,92,37.07977298363973
18,1.4314314314314314,-0.4703973205412747,92,37.07977298363973
18,1.4414414414414414,-0.5267873782932524,92,37.07977298363973
18,1.4514514514514514,-0.5699257327042382,92,37.07977298363973
18,1.4614614614614614,-0.6140484442126393,92,37.07977298363973
18,1.4714714714714714,-0.6544761188420664,92,37.07977298363973
18,1.4814814814814814,-0.6842704629914519,92,37.07977298363973
18,1.4914914914914914,-0.7331374062604353,92,37.07977298363973
18,1.5015015015015014,-0.7455259000493265,92,37.07977298363973
18,1.5115115115115114,-0.7722941107515305,92,37.07977298363973
18,1.5215215215215214,-0.7778617086695238,92,37.07977298363973
18,1.5315315315315314,-0.7736749352026491,92,37.07977298363973
18,1.5415415415415414,-0.7712718333538745,92,37.07977298363973
18,1.5515515515515514,-0.7515365236367705,92,37.07977298363973
18,1.5615615615615617,-0.7247602904731393,92,37.07977298363973
18,1.5715715715715717,-0.6867688704357626,92,37.07977298363973
18,1.5815815815815817,-0.6549901680827018,92,37.07977298363973
18,1.5915915915915917,-0.596481150586813,92,37.07977298363973
18,1.6016016016016017,-0.5351834199237709,92,37.07977298363973
18,1.6116116116116117,-0.4626060714497091,92,37.07977298363973
18,1.6216216216216215,-0.3949541282053793,92,37.07977298363973
18,1.6316316316316315,-0.3034606923073627,92,37.07977298363973
18,1.6416416416416415,-0.2133374480448817,92,37.07977298363973
18,1.6516516516516515,-0.1315666736176733,92,37.07977298363973
18,1.6616616616616615,-0.0432484465393391,92,37.07977298363973
18,1.6716716716716715,0.0424540272738209,92,37.07977298363973
18,1.6816816816816818,0.137449485440874,92,37.07977298363973
18,1.6916916916916918,0.2190092214716478,92,37.07977298363973
18,1.7017017017017018,0.3032242530612113,92,37.07977298363973
18,1.7117117117117118,0.3865087969337186,92,37.07977298363973
18,1.7217217217217218,0.4605597135690721,92,37.07977298363973
18,1.7317317317317318,0.5264800765651982,92,37.07977298363973
18,1.7417417417417418,0.5956705046704964,92,37.07977298363973
18,1.7517517517517518,0.6492732523930148,92,37.07977298363973
18,1.7617617617617618,0.6905042774138926,92,37.07977298363973
18,1.7717717717717718,0.7200789990393796,92,37.07977298363973
18,1.7817817817817818,0.759610009471134,92,37.07977298363973
18,1.7917917917917918,0.7646096394249673,92,37.07977298363973
18,1.8018018018018016,0.781344579398532,92,37.07977298363973
18,1.811811811811812,0.7819588229598103,92,37.07977298363973
18,1.8218218218218216,0.7712506580222483,92,37.07977298363973
18,1.831831831831832,0.742285411346671,92,37.07977298363973
18,1.8418418418418416,0.7198905344069408,92,37.07977298363973
18,1.851851851851852,0.6892730441456298,92,37.07977298363973
18,1.8618618618618616,0.6654398917213082,92,37.07977298363973
18,1.871871871871872,0.614605544690867,92,37.07977298363973
18,1.8818818818818817,0.5682912711079406,92,37.07977298363973
18,1.891891891891892,0.520032317187739,92,37.07977298363973
18,1.901901901901902,0.4666658272059641,92,37.07977298363973
18,1.911911911911912,0.4186496296676997,92,37.07977298363973
18,1.921921921921922,0.3715907032463654,92,37.07977298363973
18,1.931931931931932,0.3188122323390039,92,37.07977298363973
18,1.941941941941942,0.2812529089923858,92,37.07977298363973
18,1.951951951951952,0.228594233952723,92,37.07977298363973
18,1.961961961961962,0.1750656235459733,92,37.07977298363973
18,1.971971971971972,0.1455351927189765,92,37.07977298363973
18,1.981981981981982,0.1135264680115317,92,37.07977298363973
18,1.991991991991992,0.0962795736811728,92,37.07977298363973
18,2.002002002002002,0.0725107218832787,92,37.07977298363973
18,2.012012012012012,0.0537251972792011,92,37.07977298363973
18,2.022022022022022,0.021401882340863,92,37.07977298363973
18,2.032032032032032,0.0222241214081477,92,37.07977298363973
18,2.042042042042042,0.0137679622928938,92,37.07977298363973
18,2.052052052052052,-0.0005689422505704,92,37.07977298363973
18,2.062062062062062,0.0067648272153775,92,37.07977298363973
18,2.072072072072072,0.0045304875985712,92,37.07977298363973
18,2.0820820820820822,0.0004582505364288,92,37.07977298363973
18,2.092092092092092,0.0130297629157687,92,37.07977298363973
18,2.1021021021021022,0.0014651773988611,92,37.07977298363973
18,2.112112112112112,0.0020612884936236,92,37.07977298363973
18,2.1221221221221223,-0.0143870910956664,92,37.07977298363973
18,2.1321321321321323,-0.0163758137821836,92,37.07977298363973
18,2.1421421421421423,-0.0264346313105152,92,37.07977298363973
18,2.1521521521521523,-0.0303927411933072,92,37.07977298363973
18,2.1621621621621623,-0.0584085184806202,92,37.07977298363973
18,2.1721721721721723,-0.0756898820194159,92,37.07977298363973
18,2.1821821821821823,-0.1116244542714995,92,37.07977298363973
18,2.1921921921921923,-0.1390432642006043,92,37.07977298363973
18,2.2022022022022023,-0.1724964903780714,92,37.07977298363973
18,2.2122122122122123,-0.2054278045472224,92,37.07977298363973
18,2.2222222222222223,-0.2656451652467004,92,37.07977298363973
18,2.2322322322322323,-0.3060020052766022,92,37.07977298363973
18,2.2422422422422423,-0.3526564711799195,92,37.07977298363973
18,2.2522522522522523,-0.4028841652333926,92,37.07977298363973
18,2.2622622622622623,-0.4581586062968659,92,37.07977298363973
18,2.2722722722722724,-0.5092350376602368,92,37.07977298363973
18,2.2822822822822824,-0.5572074460119181,92,37.07977298363973
18,2.2922922922922924,-0.5988900691608106,92,37.07977298363973
18,2.3023023023023024,-0.6479472889448649,92,37.07977298363973
18,2.3123123123123124,-0.6837940055108529,92,37.07977298363973
18,2.3223223223223224,-0.7125504007892943,92,37.07977298363973
18,2.3323323323323324,-0.7321803590870006,92,37.07977298363973
18,2.3423423423423424,-0.7589237034489817,92,37.07977298363973
18,2.3523523523523524,-0.7840031896929632,92,37.07977298363973
18,2.3623623623623624,-0.7736641933345783,92,37.07977298363973
18,2.3723723723723724,-0.7705367143890378,92,37.07977298363973
18,2.3823823823823824,-0.7572284102005097,92,37.07977298363973
18,2.3923923923923924,-0.7347705825253826,92,37.07977298363973
18,2.4024024024024024,-0.7062935891845662,92,37.07977298363973
18,2.4124124124124124,-0.6657646977383245,92,37.07977298363973
18,2.4224224224224224,-0.6131771527756753,92,37.07977298363973
18,2.4324324324324325,-0.5487762592875375,92,37.07977298363973
18,2.4424424424424425,-0.4810145213784821,92,37.07977298363973
18,2.4524524524524525,-0.4100007599495341,92,37.07977298363973
18,2.4624624624624625,-0.3291204023737984,92,37.07977298363973
18,2.4724724724724725,-0.2389102895516346,92,37.07977298363973
18,2.4824824824824825,-0.1565972359084067,92,37.07977298363973
18,2.4924924924924925,-0.0684598265668125,92,37.07977298363973
18,2.5025025025025025,0.023637978632579,92,37.07977298363973
18,2.5125125125125125,0.1091141259812771,92,37.07977298363973
18,2.5225225225225225,0.1964772687363764,92,37.07977298363973
18,2.5325325325325325,0.2905827892542676,92,37.07977298363973
18,2.5425425425425425,0.3699769711997752,92,37.07977298363973
18,2.5525525525525525,0.4496245714088372,92,37.07977298363973
18,2.5625625625625625,0.5202076673718812,92,37.07977298363973
18,2.5725725725725725,0.575870003861756,92,37.07977298363973
18,2.5825825825825826,0.6311940703272223,92,37.07977298363973
18,2.592592592592593,0.6807300351245562,92,37.07977298363973
18,2.6026026026026026,0.7168796414795193,92,37.07977298363973
18,2.612612612612613,0.7419754718174324,92,37.07977298363973
18,2.6226226226226226,0.7675375377677947,92,37.07977298363973
18,2.6326326326326326,0.7773855736495534,92,37.07977298363973
18,2.6426426426426426,0.7798900157932516,92,37.07977298363973
18,2.6526526526526526,0.7809314167643815,92,37.07977298363973
18,2.6626626626626626,0.7487623818097188,92,37.07977298363973
18,2.6726726726726726,0.7256303740930001,92,37.07977298363973
18,2.6826826826826826,0.6980686934296327,92,37.07977298363973
18,2.6926926926926926,0.6636332332082051,92,37.07977298363973
18,2.702702702702702,0.6231534013869734,92,37.07977298363973
18,2.7127127127127126,0.5714238711185703,92,37.07977298363973
18,2.722722722722722,0.5319831785080333,92,37.07977298363973
18,2.7327327327327327,0.4769450463563509,92,37.07977298363973
18,2.7427427427427427,0.4313610732234404,92,37.07977298363973
18,2.7527527527527527,0.3836827952126442,92,37.07977298363973
18,2.7627627627627627,0.3312804169635677,92,37.07977298363973
18,2.7727727727727727,0.2858417939504625,92,37.07977298363973
18,2.7827827827827827,0.2293931821637352,92,37.07977298363973
18,2.7927927927927927,0.193386686799012,92,37.07977298363973
18,2.8028028028028027,0.1594963423547873,92,37.07977298363973
18,2.8128128128128127,0.1182356402443517,92,37.07977298363973
18,2.8228228228228227,0.0888527145345814,92,37.07977298363973
18,2.8328328328328327,0.0754743841087388,92,37.07977298363973
18,2.8428428428428427,0.0530956311060221,92,37.07977298363973
18,2.8528528528528527,0.03013012125145,92,37.07977298363973
18,2.8628628628628627,0.0179173409962949,92,37.07977298363973
18,2.8728728728728727,0.0113991515570582,92,37.07977298363973
18,2.8828828828828827,0.0075895945017239,92,37.07977298363973
18,2.8928928928928928,-0.0023149747889446,92,37.07977298363973
18,2.9029029029029028,0.0008956539718597,92,37.07977298363973
18,2.9129129129129128,0.0076431720043311,92,37.07977298363973
18,2.9229229229229228,-0.0049828013790218,92,37.07977298363973
18,2.932932932932933,0.0020467581829287,92,37.07977298363973
18,2.942942942942943,-0.0062847066073923,92,37.07977298363973
18,2.952952952952953,-0.0160734007955361,92,37.07977298363973
18,2.962962962962963,-0.0136839392622862,92,37.07977298363973
18,2.972972972972973,-0.0272244953792177,92,37.07977298363973
18,2.982982982982983,-0.0325204383543303,92,37.07977298363973
18,2.992992992992993,-0.0486853324085929,92,37.07977298363973
18,3.003003003003003,-0.0767232970286958,92,37.07977298363973
18,3.013013013013013,-0.0967595792731827,92,37.07977298363973
18,3.023023023023023,-0.1318024810122743,92,37.07977298363973
18,3.033033033033033,-0.1678379115650317,92,37.07977298363973
18,3.043043043043043,-0.2062412602178641,92,37.07977298363973
18,3.053053053053053,-0.2454255073812848,92,37.07977298363973
18,3.063063063063063,-0.286808751614041,92,37.07977298363973
18,3.073073073073073,-0.3427861850009111,92,37.07977298363973
18,3.083083083083083,-0.392334090212147,92,37.07977298363973
18,3.093093093093093,-0.4506973271252928,92,37.07977298363973
18,3.103103103103103,-0.4837586272491227,92,37.07977298363973
18,3.113113113113113,-0.5441136713571049,92,37.07977298363973
18,3.123123123123123,-0.5928162522459502,92,37.07977298363973
18,3.133133133133133,-0.6324026558527377,92,37.07977298363973
18,3.143143143143143,-0.6741953338263682,92,37.07977298363973
18,3.153153153153153,-0.7183804344281111,92,37.07977298363973
18,3.163163163163163,-0.7416343730149711,92,37.07977298363973
18,3.173173173173173,-0.7555487029450868,92,37.07977298363973
18,3.183183183183183,-0.7767790295151581,92,37.07977298363973
18,3.193193193193193,-0.7767767333596636,92,37.07977298363973
18,3.203203203203203,-0.7752597640103277,92,37.07977298363973
18,3.2132132132132134,-0.7586795341366434,92,37.07977298363973
18,3.2232232232232234,-0.7390842686694622,92,37.07977298363973
18,3.2332332332332334,-0.7084650318420297,92,37.07977298363973
18,3.2432432432432434,-0.6779560480035408,92,37.07977298363973
18,3.253253253253253,-0.6257518597281686,92,37.07977298363973
18,3.2632632632632634,-0.568736220832699,92,37.07977298363973
18,3.273273273273273,-0.4934191975270987,92,37.07977298363973
18,3.2832832832832834,-0.4347939665331584,92,37.07977298363973
18,3.293293293293293,-0.3486232914086239,92,37.07977298363973
18,3.3033033033033035,-0.2723808268867182,92,37.07977298363973
18,3.313313313313313,-0.1819283666504564,92,37.07977298363973
18,3.3233233233233235,-0.0924677183839491,92,37.07977298363973
18,3.333333333333333,6.776762399211445e-05,92,37.07977298363973
18,3.3433433433433435,0.0854724078470849,92,37.07977298363973
18,3.353353353353353,0.1808112918834318,92,37.07977298363973
18,3.3633633633633635,0.2590715594675262,92,37.07977298363973
18,3.373373373373373,0.3547697513432588,92,37.07977298363973
18,3.3833833833833835,0.430918234502857,92,37.07977298363973
18,3.393393393393393,0.4979710740202186,92,37.07977298363973
18,3.4034034034034035,0.5649358103082593,92,37.07977298363973
18,3.413413413413413,0.6233921814330791,92,37.07977298363973
18,3.4234234234234235,0.6630932320309347,92,37.07977298363973
18,3.433433433433433,0.7123914356974473,92,37.07977298363973
18,3.443443443443444,0.7397744013984505,92,37.07977298363973
18,3.4534534534534536,0.7654909165767234,92,37.07977298363973
18,3.463463463463464,0.766228904068113,92,37.07977298363973
18,3.4734734734734736,0.7805646701143271,92,37.07977298363973
18,3.483483483483484,0.7754781516405136,92,37.07977298363973
18,3.4934934934934936,0.7618839241985078,92,37.07977298363973
18,3.503503503503504,0.7410560772705351,92,37.07977298363973
18,3.5135135135135136,0.7141593391076995,92,37.07977298363973
18,3.523523523523524,0.6737477444281873,92,37.07977298363973
18,3.5335335335335336,0.6349698660985403,92,37.07977298363973
18,3.543543543543544,0.5836814176338254,92,37.07977298363973
18,3.5535535535535536,0.5478474370016885,92,37.07977298363973
18,3.563563563563564,0.4866850900267651,92,37.07977298363973
18,3.5735735735735736,0.4464355287488457,92,37.07977298363973
18,3.583583583583584,0.3944701039301233,92,37.07977298363973
18,3.5935935935935936,0.347838910156503,92,37.07977298363973
18,3.603603603603604,0.2911014325300511,92,37.07977298363973
18,3.6136136136136137,0.246323816926046,92,37.07977298363973
18,3.623623623623624,0.2045957071239637,92,37.07977298363973
18,3.6336336336336337,0.1577435740798016,92,37.07977298363973
18,3.643643643643644,0.1254541248543066,92,37.07977298363973
18,3.6536536536536537,0.1012216442860814,92,37.07977298363973
18,3.663663663663664,0.0679665928150852,92,37.07977298363973
18,3.6736736736736737,0.0559163457510222,92,37.07977298363973
18,3.683683683683684,0.0373082720752471,92,37.07977298363973
18,3.6936936936936937,0.0172102494844159,92,37.07977298363973
18,3.703703703703704,0.0188685743587974,92,37.07977298363973
18,3.7137137137137137,0.0051144026639832,92,37.07977298363973
18,3.723723723723724,0.0020156439528742,92,37.07977298363973
18,3.7337337337337337,-0.0009127725964271,92,37.07977298363973
18,3.743743743743744,-0.0055356546245815,92,37.07977298363973
18,3.7537537537537538,-0.0016428492947054,92,37.07977298363973
18,3.763763763763764,0.0022743895524118,92,37.07977298363973
18,3.7737737737737738,-0.0072051604820669,92,37.07977298363973
18,3.783783783783784,-0.0110090772657554,92,37.07977298363973
18,3.793793793793794,-0.0194755270318578,92,37.07977298363973
18,3.803803803803804,-0.0252360815711763,92,37.07977298363973
18,3.813813813813814,-0.0319912250804113,92,37.07977298363973
18,3.823823823823824,-0.0403972176235937,92,37.07977298363973
18,3.833833833833834,-0.0686166542131999,92,37.07977298363973
18,3.843843843843844,-0.0881055939874171,92,37.07977298363973
18,3.853853853853854,-0.1266156212343002,92,37.07977298363973
18,3.863863863863864,-0.1527353088393835,92,37.07977298363973
18,3.873873873873874,-0.1945822556943134,92,37.07977298363973
18,3.883883883883884,-0.2435651923212753,92,37.07977298363973
18,3.893893893893894,-0.2859278906512856,92,37.07977298363973
18,3.903903903903904,-0.3322973602631912,92,37.07977298363973
18,3.913913913913914,-0.3760789907274444,92,37.07977298363973
18,3.923923923923924,-0.4343226472171074,92,37.07977298363973
18,3.933933933933934,-0.4684191050600982,92,37.07977298363973
18,3.943943943943944,-0.5388861652248519,92,37.07977298363973
18,3.953953953953954,-0.5802652332861101,92,37.07977298363973
18,3.963963963963964,-0.6169692886473889,92,37.07977298363973
18,3.973973973973974,-0.6677517139551786,92,37.07977298363973
18,3.983983983983984,-0.703679589572046,92,37.07977298363973
18,3.993993993993994,-0.7303633410449915,92,37.07977298363973
18,4.004004004004004,-0.7570763565110105,92,37.07977298363973
18,4.014014014014014,-0.7684105116107178,92,37.07977298363973
18,4.024024024024024,-0.7719097841628457,92,37.07977298363973
18,4.034034034034034,-0.7789081407372617,92,37.07977298363973
18,4.044044044044044,-0.7695103499674718,92,37.07977298363973
18,4.054054054054054,-0.7425020907539376,92,37.07977298363973
18,4.064064064064064,-0.7089502852420669,92,37.07977298363973
18,4.074074074074074,-0.6781345900275155,92,37.07977298363973
18,4.084084084084084,-0.6310162805881229,92,37.07977298363973
18,4.094094094094094,-0.5761062719297267,92,37.07977298363973
18,4.104104104104104,-0.5049777675375179,92,37.07977298363973
18,4.114114114114114,-0.4402063666315349,92,37.07977298363973
18,4.124124124124124,-0.356892414963339,92,37.07977298363973
18,4.134134134134134,-0.2820538709059057,92,37.07977298363973
18,4.144144144144144,-0.2015173055699025,92,37.07977298363973
18,4.1541541541541545,-0.1120001506196971,92,37.07977298363973
18,4.1641641641641645,-0.0226393150284211,92,37.07977298363973
18,4.174174174174175,0.0683409683602535,92,37.07977298363973
18,4.1841841841841845,0.1554334709370081,92,37.07977298363973
18,4.1941941941941945,0.2531711957341247,92,37.07977298363973
18,4.2042042042042045,0.3233931934424762,92,37.07977298363973
18,4.214214214214215,0.4061136443218775,92,37.07977298363973
18,4.2242242242242245,0.4774418146143553,92,37.07977298363973
18,4.2342342342342345,0.5437473338351853,92,37.07977298363973
18,4.2442442442442445,0.614383264831675,92,37.07977298363973
18,4.254254254254255,0.6554932223487862,92,37.07977298363973
18,4.2642642642642645,0.7041442856980599,92,37.07977298363973
18,4.2742742742742745,0.7222485704727687,92,37.07977298363973
18,4.2842842842842845,0.7649721061657176,92,37.07977298363973
18,4.294294294294295,0.7722584920473919,92,37.07977298363973
18,4.3043043043043046,0.7829077269101221,92,37.07977298363973
18,4.314314314314315,0.7808477405792216,92,37.07977298363973
18,4.324324324324325,0.7607595550105263,92,37.07977298363973
18,4.334334334334335,0.7449407363812538,92,37.07977298363973
18,4.344344344344345,0.721562661712694,92,37.07977298363973
18,4.354354354354355,0.6898970524159347,92,37.07977298363973
18,4.364364364364365,0.6461681812409168,92,37.07977298363973
18,4.374374374374375,0.6069011298337369,92,37.07977298363973
18,4.384384384384385,0.5558957849190859,92,37.07977298363973
18,4.394394394394395,0.5025340703975211,92,37.07977298363973
18,4.404404404404405,0.4687905543316878,92,37.07977298363973
18,4.414414414414415,0.4041895873280147,92,37.07977298363973
18,4.424424424424425,0.3548630702390232,92,37.07977298363973
18,4.434434434434435,0.3170499217816349,92,37.07977298363973
18,4.444444444444445,0.2567427231646976,92,37.07977298363973
18,4.454454454454455,0.2189349696122858,92,37.07977298363973
18,4.464464464464465,0.1705603462996545,92,37.07977298363973
18,4.474474474474475,0.1411914386850193,92,37.07977298363973
18,4.484484484484485,0.1062170181209648,92,37.07977298363973
18,4.494494494494495,0.0765988976959062,92,37.07977298363973
18,4.504504504504505,0.0633406667775888,92,37.07977298363973
18,4.514514514514515,0.0473079514683371,92,37.07977298363973
18,4.524524524524525,0.0190293842905187,92,37.07977298363973
18,4.534534534534535,0.0164407106197466,92,37.07977298363973
18,4.544544544544545,0.0051698449077891,92,37.07977298363973
18,4.554554554554555,0.0029038329438183,92,37.07977298363973
18,4.564564564564565,0.0093534834237237,92,37.07977298363973
18,4.574574574574575,-0.0058812010349582,92,37.07977298363973
18,4.584584584584585,-0.0058702302466778,92,37.07977298363973
18,4.594594594594595,0.0049859601723071,92,37.07977298363973
18,4.604604604604605,-0.0028294127331814,92,37.07977298363973
18,4.614614614614615,0.0048823298813731,92,37.07977298363973
18,4.624624624624625,-0.0101491421386816,92,37.07977298363973
18,4.634634634634635,-0.0128272040225636,92,37.07977298363973
18,4.644644644644645,-0.0347746145374478,92,37.07977298363973
18,4.654654654654655,-0.0342256864199192,92,37.07977298363973
18,4.664664664664665,-0.0673693949372077,92,37.07977298363973
18,4.674674674674675,-0.0841385164427541,92,37.07977298363973
18,4.684684684684685,-0.1190348019512504,92,37.07977298363973
18,4.694694694694695,-0.14412378283417,92,37.07977298363973
18,4.704704704704705,-0.1764374691248992,92,37.07977298363973
18,4.714714714714715,-0.2271567611975372,92,37.07977298363973
18,4.724724724724725,-0.2748339803642874,92,37.07977298363973
18,4.734734734734735,-0.3211096752246314,92,37.07977298363973
18,4.744744744744745,-0.3714554700185692,92,37.07977298363973
18,4.754754754754755,-0.4165194326556131,92,37.07977298363973
18,4.764764764764765,-0.4699057167368226,92,37.07977298363973
18,4.774774774774775,-0.5084228096215557,92,37.07977298363973
18,4.784784784784785,-0.5649245917839801,92,37.07977298363973
18,4.794794794794795,-0.6151489961892874,92,37.07977298363973
18,4.804804804804805,-0.6613310584257608,92,37.07977298363973
18,4.814814814814815,-0.6914629807434083,92,37.07977298363973
18,4.824824824824825,-0.7307707039855772,92,37.07977298363973
18,4.834834834834835,-0.7421501041343204,92,37.07977298363973
18,4.844844844844845,-0.7703524449833759,92,37.07977298363973
18,4.854854854854855,-0.781068823126251,92,37.07977298363973
18,4.864864864864865,-0.7828322156489148,92,37.07977298363973
18,4.874874874874875,-0.7680671280983181,92,37.07977298363973
18,4.884884884884885,-0.7625380266655449,92,37.07977298363973
18,4.894894894894895,-0.7285258016837153,92,37.07977298363973
18,4.904904904904905,-0.6904076334706064,92,37.07977298363973
18,4.914914914914915,-0.6466229530447605,92,37.07977298363973
18,4.924924924924925,-0.6037810740700794,92,37.07977298363973
18,4.934934934934935,-0.5334344568135632,92,37.07977298363973
18,4.944944944944945,-0.4683046547760222,92,37.07977298363973
18,4.954954954954955,-0.3872390291824991,92,37.07977298363973
18,4.964964964964965,-0.3051023758302698,92,37.07977298363973
18,4.974974974974975,-0.2267754199846082,92,37.07977298363973
18,4.984984984984985,-0.1314117890390858,92,37.07977298363973
18,4.994994994994995,-0.0483043122692559,92,37.07977298363973
18,5.005005005005005,0.0417403896180804,92,37.07977298363973
18,5.015015015015015,0.136634547366791,92,37.07977298363973
18,5.025025025025025,0.216972988624435,92,37.07977298363973
18,5.035035035035035,0.3143222880530599,92,37.07977298363973
18,5.045045045045045,0.3882387173463823,92,37.07977298363973
18,5.055055055055055,0.4647968595957225,92,37.07977298363973
18,5.065065065065065,0.5359474571493761,92,37.07977298363973
18,5.075075075075075,0.5962240215110475,92,37.07977298363973
18,5.085085085085085,0.6524974910095129,92,37.07977298363973
18,5.095095095095095,0.6935812290379936,92,37.07977298363973
18,5.105105105105105,0.7239536764998347,92,37.07977298363973
18,5.115115115115115,0.7506179099870715,92,37.07977298363973
18,5.125125125125125,0.7696510290216857,92,37.07977298363973
18,5.135135135135135,0.7759533051163932,92,37.07977298363973
18,5.145145145145145,0.7794471414026181,92,37.07977298363973
18,5.155155155155155,0.7689640375922774,92,37.07977298363973
18,5.165165165165165,0.7506506680537076,92,37.07977298363973
18,5.175175175175175,0.7313719413626388,92,37.07977298363973
18,5.185185185185185,0.6917833699303747,92,37.07977298363973
18,5.195195195195195,0.6483339717646194,92,37.07977298363973
18,5.205205205205205,0.6117976491338901,92,37.07977298363973
18,5.215215215215215,0.5727820327460936,92,37.07977298363973
18,5.225225225225225,0.5236646503079722,92,37.07977298363973
18,5.235235235235235,0.4698336988319264,92,37.07977298363973
18,5.245245245245245,0.4101808684710249,92,37.07977298363973
18,5.255255255255255,0.3631599130229999,92,37.07977298363973
18,5.265265265265265,0.3184751997523821,92,37.07977298363973
18,5.275275275275275,0.2704829266439519,92,37.07977298363973
18,5.285285285285285,0.2283379447942449,92,37.07977298363973
18,5.295295295295295,0.1888587188748232,92,37.07977298363973
18,5.305305305305305,0.1531732747460622,92,37.07977298363973
18,5.315315315315315,0.1020639784941282,92,37.07977298363973
18,5.325325325325325,0.0844792345201594,92,37.07977298363973
18,5.335335335335335,0.0519088931305137,92,37.07977298363973
18,5.345345345345345,0.0408168711871785,92,37.07977298363973
18,5.355355355355355,0.0312783930330474,92,37.07977298363973
18,5.365365365365365,0.0138853717541208,92,37.07977298363973
18,5.375375375375375,0.0066931383691834,92,37.07977298363973
18,5.385385385385385,-0.0006124828203782,92,37.07977298363973
18,5.395395395395395,0.0100352575403823,92,37.07977298363973
18,5.405405405405405,0.0041277750912546,92,37.07977298363973
18,5.415415415415415,-0.0039294245011162,92,37.07977298363973
18,5.425425425425425,-0.0018742528436608,92,37.07977298363973
18,5.435435435435435,0.0034749462728229,92,37.07977298363973
18,5.445445445445445,0.0028408221417379,92,37.07977298363973
18,5.455455455455455,-0.0137742233586175,92,37.07977298363973
18,5.465465465465465,-0.0082260673414985,92,37.07977298363973
18,5.475475475475475,-0.0332706231253042,92,37.07977298363973
18,5.485485485485485,-0.0394769670475896,92,37.07977298363973
18,5.495495495495495,-0.0581996203802521,92,37.07977298363973
18,5.505505505505505,-0.0837323297906843,92,37.07977298363973
18,5.515515515515515,-0.1039450094932157,92,37.07977298363973
18,5.525525525525525,-0.1403075230965216,92,37.07977298363973
18,5.535535535535535,-0.1806827078752185,92,37.07977298363973
18,5.545545545545545,-0.2124486024463055,92,37.07977298363973
18,5.555555555555555,-0.2609313068793286,92,37.07977298363973
18,5.565565565565565,-0.2999739967236504,92,37.07977298363973
18,5.575575575575575,-0.3582772822695435,92,37.07977298363973
18,5.585585585585585,-0.4035518943975321,92,37.07977298363973
18,5.595595595595595,-0.4632895732083144,92,37.07977298363973
18,5.605605605605605,-0.51333337293466,92,37.07977298363973
18,5.615615615615615,-0.5460197314404003,92,37.07977298363973
18,5.625625625625625,-0.6075720039919149,92,37.07977298363973
18,5.635635635635635,-0.6375015921452867,92,37.07977298363973
18,5.645645645645645,-0.6826059075447648,92,37.07977298363973
18,5.655655655655655,-0.7184666503085467,92,37.07977298363973
18,5.665665665665665,-0.7504684084619733,92,37.07977298363973
18,5.675675675675675,-0.7613105153845952,92,37.07977298363973
18,5.685685685685685,-0.7697214306554624,92,37.07977298363973
18,5.695695695695696,-0.7769693145226773,92,37.07977298363973
18,5.7057057057057055,-0.7712935158840561,92,37.07977298363973
18,5.715715715715716,-0.7546285574101378,92,37.07977298363973
18,5.7257257257257255,-0.7460842815833267,92,37.07977298363973
18,5.735735735735736,-0.6959138007710983,92,37.07977298363973
18,5.7457457457457455,-0.662588722849295,92,37.07977298363973
18,5.755755755755756,-0.6016014834537434,92,37.07977298363973
18,5.7657657657657655,-0.5447165362179291,92,37.07977298363973
18,5.775775775775776,-0.4824267432854036,92,37.07977298363973
18,5.7857857857857855,-0.4030109517456208,92,37.07977298363973
18,5.795795795795796,-0.3222306683583117,92,37.07977298363973
18,5.8058058058058055,-0.2454104221421707,92,37.07977298363973
18,5.815815815815816,-0.1533027514055356,92,37.07977298363973
18,5.8258258258258255,-0.0683536228619299,92,37.07977298363973
18,5.835835835835836,0.0242637954362617,92,37.07977298363973
18,5.8458458458458455,0.1064229395124895,92,37.07977298363973
18,5.855855855855856,0.20239377271529,92,37.07977298363973
18,5.865865865865866,0.2891235407494991,92,37.07977298363973
18,5.875875875875876,0.3710118241914739,92,37.07977298363973
18,5.885885885885886,0.4390279902981646,92,37.07977298363973
18,5.895895895895896,0.5177172802905357,92,37.07977298363973
18,5.905905905905906,0.5725398318676597,92,37.07977298363973
18,5.915915915915916,0.6272374137924898,92,37.07977298363973
18,5.925925925925926,0.6767000269481062,92,37.07977298363973
18,5.935935935935936,0.710334354231903,92,37.07977298363973
18,5.945945945945946,0.7509204545106558,92,37.07977298363973
18,5.955955955955956,0.7619955893138096,92,37.07977298363973
18,5.965965965965966,0.7781471550126822,92,37.07977298363973
18,5.975975975975976,0.7689552384235393,92,37.07977298363973
18,5.985985985985986,0.7588685124671891,92,37.07977298363973
18,5.995995995995996,0.7585987958243212,92,37.07977298363973
18,6.006006006006006,0.7311885695083333,92,37.07977298363973
18,6.016016016016016,0.7079111782932495,92,37.07977298363973
18,6.026026026026026,0.6728484883385927,92,37.07977298363973
18,6.036036036036036,0.6248494173531044,92,37.07977298363973
18,6.046046046046046,0.5795487746384859,92,37.07977298363973
18,6.056056056056056,0.535129326543219,92,37.07977298363973
18,6.066066066066066,0.4897498021935305,92,37.07977298363973
18,6.076076076076076,0.431212294130094,92,37.07977298363973
18,6.086086086086086,0.3818525398182156,92,37.07977298363973
18,6.096096096096096,0.3306061714076682,92,37.07977298363973
18,6.106106106106106,0.2821572448832548,92,37.07977298363973
18,6.116116116116116,0.2363103846187979,92,37.07977298363973
18,6.126126126126126,0.1920143677810682,92,37.07977298363973
18,6.136136136136136,0.1726431982189823,92,37.07977298363973
18,6.146146146146146,0.1163992745734309,92,37.07977298363973
18,6.156156156156156,0.091995368667026,92,37.07977298363973
18,6.166166166166166,0.0632673512010343,92,37.07977298363973
18,6.176176176176176,0.0470552250325673,92,37.07977298363973
18,6.186186186186186,0.0249476719062617,92,37.07977298363973
18,6.196196196196196,0.0235079276329119,92,37.07977298363973
18,6.206206206206206,0.012867098224352,92,37.07977298363973
18,6.216216216216216,0.0030395082675191,92,37.07977298363973
18,6.226226226226226,0.0045471690031844,92,37.07977298363973
18,6.236236236236236,0.0050071181637618,92,37.07977298363973
18,6.246246246246246,-0.0009095105785253,92,37.07977298363973
18,6.256256256256256,-0.0033179320904832,92,37.07977298363973
18,6.266266266266266,0.0042601556891533,92,37.07977298363973
18,6.276276276276276,-0.0040171799311977,92,37.07977298363973
18,6.286286286286286,-0.0085301774259012,92,37.07977298363973
18,6.296296296296296,-0.0139785456402657,92,37.07977298363973
18,6.306306306306306,-0.0271975517617977,92,37.07977298363973
18,6.316316316316316,-0.0336045045555557,92,37.07977298363973
18,6.326326326326326,-0.0537160888093319,92,37.07977298363973
18,6.336336336336336,-0.0709451478745189,92,37.07977298363973
18,6.346346346346346,-0.1039086176501445,92,37.07977298363973
18,6.356356356356356,-0.1264219909142779,92,37.07977298363973
18,6.366366366366366,-0.1634540464957924,92,37.07977298363973
18,6.376376376376376,-0.2031256095256335,92,37.07977298363973
18,6.386386386386386,-0.2519917176423584,92,37.07977298363973
18,6.396396396396396,-0.2930364853491978,92,37.07977298363973
18,6.406406406406406,-0.3428493958159977,92,37.07977298363973
18,6.416416416416417,-0.3967881040054949,92,37.07977298363973
18,6.426426426426427,-0.4423104903424329,92,37.07977298363973
18,6.436436436436437,-0.4940964842853773,92,37.07977298363973
18,6.446446446446447,-0.5512803059497737,92,37.07977298363973
18,6.456456456456457,-0.5913054235205948,92,37.07977298363973
18,6.466466466466467,-0.6385540058400776,92,37.07977298363973
18,6.476476476476477,-0.6722730800810102,92,37.07977298363973
18,6.486486486486487,-0.7127380302239423,92,37.07977298363973
18,6.496496496496497,-0.7366772486189948,92,37.07977298363973
18,6.506506506506507,-0.7653683168770767,92,37.07977298363973
18,6.516516516516517,-0.7611946899528296,92,37.07977298363973
18,6.526526526526527,-0.7828310605967137,92,37.07977298363973
18,6.536536536536537,-0.7771616779711885,92,37.07977298363973
18,6.546546546546547,-0.760870809366839,92,37.07977298363973
18,6.556556556556557,-0.7467943075442834,92,37.07977298363973
18,6.566566566566567,-0.7117032331961939,92,37.07977298363973
18,6.576576576576577,-0.6741082437623539,92,37.07977298363973
18,6.586586586586587,-0.6140363703793901,92,37.07977298363973
18,6.596596596596597,-0.5649204235376475,92,37.07977298363973
18,6.606606606606607,-0.4963438167993715,92,37.07977298363973
18,6.616616616616617,-0.4347069395147938,92,37.07977298363973
18,6.626626626626627,-0.3429586690152316,92,37.07977298363973
18,6.636636636636637,-0.2647455007572125,92,37.07977298363973
18,6.646646646646647,-0.1740899813130981,92,37.07977298363973
18,6.656656656656657,-0.0916615862074958,92,37.07977298363973
18,6.666666666666667,0.0042199164024503,92,37.07977298363973
18,6.676676676676677,0.0993628196528057,92,37.07977298363973
18,6.686686686686687,0.1791539784427699,92,37.07977298363973
18,6.696696696696697,0.2646728971403131,92,37.07977298363973
18,6.706706706706707,0.347343856112796,92,37.07977298363973
18,6.716716716716717,0.4323183240171761,92,37.07977298363973
18,6.726726726726727,0.4980307854678107,92,37.07977298363973
18,6.736736736736737,0.562971388334236,92,37.07977298363973
18,6.746746746746747,0.6225403718327621,92,37.07977298363973
18,6.756756756756757,0.6740263195193058,92,37.07977298363973
18,6.766766766766767,0.7113307029790032,92,37.07977298363973
18,6.776776776776777,0.7467207172753083,92,37.07977298363973
18,6.786786786786787,0.760497887875679,92,37.07977298363973
18,6.796796796796797,0.7669910279646944,92,37.07977298363973
18,6.806806806806807,0.7839340902505523,92,37.07977298363973
18,6.816816816816817,0.7704753190001682,92,37.07977298363973
18,6.826826826826827,0.759934042700829,92,37.07977298363973
18,6.836836836836837,0.7383951862156654,92,37.07977298363973
18,6.846846846846847,0.7068304745010868,92,37.07977298363973
18,6.856856856856857,0.6837602244628536,92,37.07977298363973
18,6.866866866866867,0.628313340608199,92,37.07977298363973
18,6.876876876876877,0.5843578960347056,92,37.07977298363973
18,6.886886886886887,0.5480606878066585,92,37.07977298363973
18,6.896896896896897,0.4948191071101297,92,37.07977298363973
18,6.906906906906907,0.4431133864782669,92,37.07977298363973
18,6.916916916916917,0.3890776010514599,92,37.07977298363973
18,6.926926926926927,0.3419959718980278,92,37.07977298363973
18,6.936936936936937,0.3035693025271713,92,37.07977298363973
18,6.946946946946947,0.2464361605681517,92,37.07977298363973
18,6.956956956956957,0.2195093309654336,92,37.07977298363973
18,6.966966966966967,0.160822300130344,92,37.07977298363973
18,6.976976976976977,0.1212553361301537,92,37.07977298363973
18,6.986986986986987,0.0935803050404233,92,37.07977298363973
18,6.996996996996997,0.0760283048848423,92,37.07977298363973
18,7.007007007007007,0.0512783915493719,92,37.07977298363973
18,7.017017017017017,0.0457344918168336,92,37.07977298363973
18,7.027027027027027,0.0295607801191922,92,37.07977298363973
18,7.037037037037037,0.0115707324918294,92,37.07977298363973
18,7.047047047047047,0.0189256283413134,92,37.07977298363973
18,7.057057057057057,-0.0043997215482893,92,37.07977298363973
18,7.067067067067067,0.0012362505158444,92,37.07977298363973
18,7.077077077077077,0.0005610020514248,92,37.07977298363973
18,7.087087087087087,0.0016054584200024,92,37.07977298363973
18,7.097097097097097,0.0035763061519329,92,37.07977298363973
18,7.107107107107107,-0.0175708305082346,92,37.07977298363973
18,7.117117117117117,0.0012151251346365,92,37.07977298363973
18,7.127127127127127,-0.0082712057870493,92,37.07977298363973
18,7.137137137137137,-0.0244896350822091,92,37.07977298363973
18,7.147147147147147,-0.0318337243609125,92,37.07977298363973
18,7.157157157157157,-0.0503914711681695,92,37.07977298363973
18,7.167167167167167,-0.0635565606655409,92,37.07977298363973
18,7.177177177177177,-0.1005259064781927,92,37.07977298363973
18,7.187187187187187,-0.1269111124010387,92,37.07977298363973
18,7.197197197197197,-0.1536594245171653,92,37.07977298363973
18,7.207207207207207,-0.1949722159004753,92,37.07977298363973
18,7.217217217217217,-0.2381341391742266,92,37.07977298363973
18,7.227227227227227,-0.2728838002194669,92,37.07977298363973
18,7.237237237237237,-0.3251447381786363,92,37.07977298363973
18,7.247247247247247,-0.3741872698797481,92,37.07977298363973
18,7.257257257257257,-0.4297057103390773,92,37.07977298363973
18,7.267267267267267,-0.478994830975865,92,37.07977298363973
18,7.277277277277277,-0.5319419281243761,92,37.07977298363973
18,7.287287287287287,-0.5869807831249323,92,37.07977298363973
18,7.297297297297297,-0.6301582556234903,92,37.07977298363973
18,7.307307307307307,-0.6650873859375234,92,37.07977298363973
18,7.317317317317317,-0.6987399458305008,92,37.07977298363973
18,7.327327327327327,-0.730308946723936,92,37.07977298363973
18,7.337337337337337,-0.7575311015069184,92,37.07977298363973
18,7.347347347347347,-0.7658848444023763,92,37.07977298363973
18,7.357357357357357,-0.7814757613031603,92,37.07977298363973
18,7.367367367367367,-0.7790287014859387,92,37.07977298363973
18,7.377377377377377,-0.7698715299669089,92,37.07977298363973
18,7.387387387387387,-0.7432612127946482,92,37.07977298363973
18,7.397397397397397,-0.7231552965967615,92,37.07977298363973
18,7.407407407407407,-0.6818404704989017,92,37.07977298363973
18,7.4174174174174174,-0.6274990411497888,92,37.07977298363973
18,7.4274274274274275,-0.5758761507878856,92,37.07977298363973
18,7.437437437437437,-0.5161135151306331,92,37.07977298363973
18,7.447447447447447,-0.4419350731262865,92,37.07977298363973
18,7.4574574574574575,-0.3711428016920696,92,37.07977298363973
18,7.4674674674674675,-0.2824333195614932,92,37.07977298363973
18,7.477477477477477,-0.2016046008805229,92,37.07977298363973
18,7.487487487487487,-0.1158431456646426,92,37.07977298363973
18,7.4974974974974975,-0.0255034626994713,92,37.07977298363973
18,7.5075075075075075,0.0682580707801194,92,37.07977298363973
18,7.517517517517517,0.1559651854132279,92,37.07977298363973
18,7.527527527527527,0.2402543391588016,92,37.07977298363973
18,7.5375375375375375,0.319113102914733,92,37.07977298363973
18,7.5475475475475475,0.4114684542560732,92,37.07977298363973
18,7.557557557557557,0.4820395143935825,92,37.07977298363973
18,7.567567567567567,0.5411603699873181,92,37.07977298363973
18,7.5775775775775776,0.6070888823623336,92,37.07977298363973
18,7.587587587587588,0.6629261481813298,92,37.07977298363973
18,7.597597597597598,0.7069678945336472,92,37.07977298363973
18,7.607607607607608,0.7409018090933561,92,37.07977298363973
18,7.617617617617618,0.7593734199049925,92,37.07977298363973
18,7.627627627627628,0.7766154743249645,92,37.07977298363973
18,7.637637637637638,0.7837536227069435,92,37.07977298363973
18,7.647647647647648,0.776915279086431,92,37.07977298363973
18,7.657657657657658,0.7733557901006016,92,37.07977298363973
18,7.667667667667668,0.7501001593653907,92,37.07977298363973
18,7.677677677677678,0.7272351838619431,92,37.07977298363973
18,7.687687687687688,0.6769014009443624,92,37.07977298363973
18,7.697697697697698,0.6432571788533379,92,37.07977298363973
18,7.707707707707708,0.5951299083136372,92,37.07977298363973
18,7.717717717717718,0.5541588861991247,92,37.07977298363973
18,7.727727727727728,0.5141833213099396,92,37.07977298363973
18,7.737737737737738,0.457287903484573,92,37.07977298363973
18,7.747747747747748,0.4080663325172424,92,37.07977298363973
18,7.757757757757758,0.3518953584636538,92,37.07977298363973
18,7.767767767767768,0.3067597577973868,92,37.07977298363973
18,7.777777777777778,0.264662671871927,92,37.07977298363973
18,7.787787787787788,0.2133260820908946,92,37.07977298363973
18,7.797797797797798,0.1813443674120173,92,37.07977298363973
18,7.807807807807808,0.1406059136036522,92,37.07977298363973
18,7.817817817817818,0.0987608581238389,92,37.07977298363973
18,7.827827827827828,0.0750339770180426,92,37.07977298363973
18,7.837837837837838,0.0582199796071732,92,37.07977298363973
18,7.847847847847848,0.0331105799255904,92,37.07977298363973
18,7.857857857857858,0.0252732076031591,92,37.07977298363973
18,7.867867867867868,0.0145109106021356,92,37.07977298363973
18,7.877877877877878,-0.0033335104157177,92,37.07977298363973
18,7.887887887887888,0.0029065911956514,92,37.07977298363973
18,7.897897897897898,-0.000373327612693,92,37.07977298363973
18,7.907907907907908,0.0109505668019357,92,37.07977298363973
18,7.917917917917918,0.0003215305278747,92,37.07977298363973
18,7.927927927927928,0.00485630664625,92,37.07977298363973
18,7.937937937937938,0.0032357106900045,92,37.07977298363973
18,7.947947947947948,-0.0081425181937351,92,37.07977298363973
18,7.957957957957958,-0.004012009548905,92,37.07977298363973
18,7.967967967967968,-0.0176467154837318,92,37.07977298363973
18,7.977977977977978,-0.0342613389213944,92,37.07977298363973
18,7.987987987987988,-0.04385366870595,92,37.07977298363973
18,7.997997997997998,-0.0703353340428498,92,37.07977298363973
18,8.008008008008009,-0.0842622556268173,92,37.07977298363973
18,8.018018018018019,-0.1174119793330207,92,37.07977298363973
18,8.028028028028029,-0.1471359516964069,92,37.07977298363973
18,8.038038038038039,-0.1865987902491327,92,37.07977298363973
18,8.048048048048049,-0.228837831230696,92,37.07977298363973
18,8.058058058058059,-0.2653220675393699,92,37.07977298363973
18,8.068068068068069,-0.3157180994828737,92,37.07977298363973
18,8.078078078078079,-0.3665928364143573,92,37.07977298363973
18,8.088088088088089,-0.4240846207961024,92,37.07977298363973
18,8.098098098098099,-0.4768008807064336,92,37.07977298363973
18,8.108108108108109,-0.5161905558344123,92,37.07977298363973
18,8.118118118118119,-0.5721665349455439,92,37.07977298363973
18,8.128128128128129,-0.6218774177049603,92,37.07977298363973
18,8.138138138138139,-0.660842031426347,92,37.07977298363973
18,8.148148148148149,-0.7065019324343079,92,37.07977298363973
18,8.158158158158159,-0.7221577094234447,92,37.07977298363973
18,8.168168168168169,-0.7451237442402825,92,37.07977298363973
18,8.178178178178179,-0.7643300417954296,92,37.07977298363973
18,8.188188188188189,-0.7825957377319931,92,37.07977298363973
18,8.198198198198199,-0.7792930038113373,92,37.07977298363973
18,8.208208208208209,-0.7842920072752319,92,37.07977298363973
18,8.218218218218219,-0.754904954843389,92,37.07977298363973
18,8.228228228228229,-0.7328100723619438,92,37.07977298363973
18,8.238238238238239,-0.6995754742710313,92,37.07977298363973
18,8.248248248248249,-0.6570093976224459,92,37.07977298363973
18,8.258258258258259,-0.5888114311670184,92,37.07977298363973
18,8.268268268268269,-0.5334757291246058,92,37.07977298363973
18,8.278278278278279,-0.4633710770947349,92,37.07977298363973
18,8.288288288288289,-0.3905112296827636,92,37.07977298363973
18,8.298298298298299,-0.3049260206660529,92,37.07977298363973
18,8.308308308308309,-0.2209870940052078,92,37.07977298363973
18,8.318318318318319,-0.1406964616323279,92,37.07977298363973
18,8.328328328328329,-0.0420549531405658,92,37.07977298363973
18,8.338338338338339,0.0464643872513836,92,37.07977298363973
18,8.348348348348349,0.1358040479230729,92,37.07977298363973
18,8.358358358358359,0.2231198901458952,92,37.07977298363973
18,8.368368368368369,0.2949788250898725,92,37.07977298363973
18,8.378378378378379,0.3858682905494511,92,37.07977298363973
18,8.388388388388389,0.4573933867350205,92,37.07977298363973
18,8.398398398398399,0.5314939830587534,92,37.07977298363973
18,8.408408408408409,0.5925606393534465,92,37.07977298363973
18,8.418418418418419,0.6370590264220857,92,37.07977298363973
18,8.428428428428429,0.6832378560114937,92,37.07977298363973
18,8.438438438438439,0.723485848318714,92,37.07977298363973
18,8.448448448448449,0.7545524242822471,92,37.07977298363973
18,8.458458458458459,0.7768136762681169,92,37.07977298363973
18,8.468468468468469,0.7675146386878996,92,37.07977298363973
18,8.478478478478479,0.7762651158373616,92,37.07977298363973
18,8.488488488488489,0.7695784841427208,92,37.07977298363973
18,8.498498498498499,0.7614369660432189,92,37.07977298363973
18,8.508508508508509,0.7264320342123081,92,37.07977298363973
18,8.518518518518519,0.6986925494645082,92,37.07977298363973
18,8.528528528528529,0.6495616414441866,92,37.07977298363973
18,8.538538538538539,0.6085591572633137,92,37.07977298363973
18,8.548548548548549,0.5554132972785158,92,37.07977298363973
18,8.558558558558559,0.5237582767271537,92,37.07977298363973
18,8.568568568568569,0.4623551876705592,92,37.07977298363973
18,8.578578578578579,0.4175031627021695,92,37.07977298363973
18,8.588588588588589,0.368459490215054,92,37.07977298363973
18,8.598598598598599,0.3192014907870498,92,37.07977298363973
18,8.608608608608609,0.2719820848100851,92,37.07977298363973
18,8.618618618618619,0.2276139035977596,92,37.07977298363973
18,8.62862862862863,0.1844763999627897,92,37.07977298363973
18,8.63863863863864,0.1526826423858011,92,37.07977298363973
18,8.64864864864865,0.117779962756848,92,37.07977298363973
18,8.65865865865866,0.0838922617834198,92,37.07977298363973
18,8.66866866866867,0.0661214695927983,92,37.07977298363973
18,8.67867867867868,0.0399521900185976,92,37.07977298363973
18,8.68868868868869,0.0246379254033237,92,37.07977298363973
18,8.6986986986987,0.0141981921890733,92,37.07977298363973
18,8.70870870870871,0.0078017718499735,92,37.07977298363973
18,8.71871871871872,0.0143249212984282,92,37.07977298363973
18,8.72872872872873,0.0020093502944786,92,37.07977298363973
18,8.73873873873874,0.0028884966347343,92,37.07977298363973
18,8.74874874874875,-0.0076289122458786,92,37.07977298363973
18,8.75875875875876,-0.002707703945542,92,37.07977298363973
18,8.76876876876877,0.0087310890404376,92,37.07977298363973
18,8.77877877877878,-0.017263955977575,92,37.07977298363973
18,8.78878878878879,-0.0088155613987036,92,37.07977298363973
18,8.7987987987988,-0.0076156388586545,92,37.07977298363973
18,8.80880880880881,-0.0217293135888637,92,37.07977298363973
18,8.81881881881882,-0.0444537367291356,92,37.07977298363973
18,8.82882882882883,-0.0597104511338685,92,37.07977298363973
18,8.83883883883884,-0.083683531128197,92,37.07977298363973
18,8.84884884884885,-0.1138124715179151,92,37.07977298363973
18,8.85885885885886,-0.1459401024982421,92,37.07977298363973
18,8.86886886886887,-0.1691019952369356,92,37.07977298363973
18,8.87887887887888,-0.2186976182705017,92,37.07977298363973
18,8.88888888888889,-0.2608827978387101,92,37.07977298363973
18,8.8988988988989,-0.3072931686697579,92,37.07977298363973
18,8.90890890890891,-0.3543134639501989,92,37.07977298363973
18,8.91891891891892,-0.3986346770496174,92,37.07977298363973
18,8.92892892892893,-0.4555328761127933,92,37.07977298363973
18,8.93893893893894,-0.5048993941959694,92,37.07977298363973
18,8.94894894894895,-0.5608567881707561,92,37.07977298363973
18,8.95895895895896,-0.6038357988401616,92,37.07977298363973
18,8.96896896896897,-0.6545750118210307,92,37.07977298363973
18,8.97897897897898,-0.6748064068638985,92,37.07977298363973
18,8.98898898898899,-0.7127625943312966,92,37.07977298363973
18,8.998998998999,-0.7447752121484297,92,37.07977298363973
18,9.00900900900901,-0.7675482471837803,92,37.07977298363973
18,9.01901901901902,-0.7740592368214702,92,37.07977298363973
18,9.02902902902903,-0.7801862088614018,92,37.07977298363973
18,9.03903903903904,-0.7736783872541098,92,37.07977298363973
18,9.04904904904905,-0.7641315362503872,92,37.07977298363973
18,9.05905905905906,-0.7315415441837066,92,37.07977298363973
18,9.06906906906907,-0.7030868906525167,92,37.07977298363973
18,9.07907907907908,-0.6514658260715325,92,37.07977298363973
18,9.08908908908909,-0.604667308504908,92,37.07977298363973
18,9.0990990990991,-0.5584492217273466,92,37.07977298363973
18,9.10910910910911,-0.4843202882288798,92,37.07977298363973
18,9.11911911911912,-0.4072319258785625,92,37.07977298363973
18,9.12912912912913,-0.3279065961411397,92,37.07977298363973
18,9.13913913913914,-0.2413323417663326,92,37.07977298363973
18,9.14914914914915,-0.1606764146303692,92,37.07977298363973
18,9.15915915915916,-0.0704938314247996,92,37.07977298363973
18,9.16916916916917,0.01709178704794,92,37.07977298363973
18,9.17917917917918,0.1020554330156611,92,37.07977298363973
18,9.18918918918919,0.2032460322275661,92,37.07977298363973
18,9.1991991991992,0.2892824178563504,92,37.07977298363973
18,9.20920920920921,0.3746338337432193,92,37.07977298363973
18,9.21921921921922,0.4422847033615454,92,37.07977298363973
18,9.22922922922923,0.5115004639762888,92,37.07977298363973
18,9.23923923923924,0.5817942879077875,92,37.07977298363973
18,9.24924924924925,0.6349637011314183,92,37.07977298363973
18,9.25925925925926,0.688134981247867,92,37.07977298363973
18,9.26926926926927,0.7230571123787557,92,37.07977298363973
18,9.27927927927928,0.750755779493875,92,37.07977298363973
18,9.28928928928929,0.7648463534372351,92,37.07977298363973
18,9.2992992992993,0.780873885183025,92,37.07977298363973
18,9.30930930930931,0.7833171681363236,92,37.07977298363973
18,9.31931931931932,0.7654635053929097,92,37.07977298363973
18,9.32932932932933,0.7521661310449937,92,37.07977298363973
18,9.33933933933934,0.7303082831671521,92,37.07977298363973
18,9.34934934934935,0.6955122152939175,92,37.07977298363973
18,9.35935935935936,0.6632505785434388,92,37.07977298363973
18,9.36936936936937,0.623302250996684,92,37.07977298363973
18,9.37937937937938,0.573315908875932,92,37.07977298363973
18,9.38938938938939,0.5339317564092247,92,37.07977298363973
18,9.3993993993994,0.482285103592512,92,37.07977298363973
18,9.40940940940941,0.4205604810037697,92,37.07977298363973
18,9.41941941941942,0.3845195393578485,92,37.07977298363973
18,9.42942942942943,0.3252153858080995,92,37.07977298363973
18,9.43943943943944,0.2826897170141818,92,37.07977298363973
18,9.44944944944945,0.2440404911618388,92,37.07977298363973
18,9.45945945945946,0.1966100653038566,92,37.07977298363973
18,9.46946946946947,0.1571547217023514,92,37.07977298363973
18,9.47947947947948,0.1236385692984071,92,37.07977298363973
18,9.48948948948949,0.0941853824815334,92,37.07977298363973
18,9.4994994994995,0.0684371253161795,92,37.07977298363973
18,9.50950950950951,0.050641733929063,92,37.07977298363973
18,9.51951951951952,0.0398890001596266,92,37.07977298363973
18,9.52952952952953,0.0260846310715952,92,37.07977298363973
18,9.53953953953954,-0.0008190047194421,92,37.07977298363973
18,9.54954954954955,0.0080595568580994,92,37.07977298363973
18,9.55955955955956,0.0040931983650896,92,37.07977298363973
18,9.56956956956957,0.0071897823498867,92,37.07977298363973
18,9.57957957957958,0.0021571637660458,92,37.07977298363973
18,9.58958958958959,-0.000159934511408,92,37.07977298363973
18,9.5995995995996,-0.0077871582621375,92,37.07977298363973
18,9.60960960960961,-0.0010165380414104,92,37.07977298363973
18,9.61961961961962,-0.001236388243727,92,37.07977298363973
18,9.62962962962963,-0.0099325632443431,92,37.07977298363973
18,9.63963963963964,-0.022821190077405,92,37.07977298363973
18,9.64964964964965,-0.0369652116572512,92,37.07977298363973
18,9.65965965965966,-0.0530988995464652,92,37.07977298363973
18,9.66966966966967,-0.0690441859456603,92,37.07977298363973
18,9.67967967967968,-0.1053533276237219,92,37.07977298363973
18,9.68968968968969,-0.1279643579546367,92,37.07977298363973
18,9.6996996996997,-0.1683737025273078,92,37.07977298363973
18,9.70970970970971,-0.2069908967188251,92,37.07977298363973
18,9.71971971971972,-0.252190301712166,92,37.07977298363973
18,9.72972972972973,-0.2998169918815579,92,37.07977298363973
18,9.73973973973974,-0.3345873485193503,92,37.07977298363973
18,9.74974974974975,-0.3866128378364439,92,37.07977298363973
18,9.75975975975976,-0.4451467645289094,92,37.07977298363973
18,9.76976976976977,-0.4853590441955704,92,37.07977298363973
18,9.77977977977978,-0.5451571876620732,92,37.07977298363973
18,9.78978978978979,-0.5989651484673586,92,37.07977298363973
18,9.7997997997998,-0.6410348704112664,92,37.07977298363973
18,9.80980980980981,-0.6812619768784016,92,37.07977298363973
18,9.81981981981982,-0.7127411067208234,92,37.07977298363973
18,9.82982982982983,-0.7434033559699516,92,37.07977298363973
18,9.83983983983984,-0.7572850895806282,92,37.07977298363973
18,9.84984984984985,-0.7831411439320287,92,37.07977298363973
18,9.85985985985986,-0.7834563112984408,92,37.07977298363973
18,9.86986986986987,-0.7751439492033316,92,37.07977298363973
18,9.87987987987988,-0.7690266649367876,92,37.07977298363973
18,9.88988988988989,-0.7474024228354291,92,37.07977298363973
18,9.8998998998999,-0.70055339475058,92,37.07977298363973
18,9.90990990990991,-0.6712098511424741,92,37.07977298363973
18,9.91991991991992,-0.6185344722157049,92,37.07977298363973
18,9.92992992992993,-0.5586083165884194,92,37.07977298363973
18,9.93993993993994,-0.501060396623353,92,37.07977298363973
18,9.94994994994995,-0.4198268067138274,92,37.07977298363973
18,9.95995995995996,-0.350148562912731,92,37.07977298363973
18,9.96996996996997,-0.2657171040703242,92,37.07977298363973
18,9.97997997997998,-0.1824367994377909,92,37.07977298363973
18,9.98998998998999,-0.092891500344995,92,37.07977298363973
18,10.0,-0.0035780401798828,92,37.07977298363973
