Subject_ID,Time,PPG,HR,HRV
19,0.0,0.0001137606171466,66,97.32098137454854
19,0.01001001001001,0.0954166362723554,66,97.32098137454854
19,0.02002002002002,0.1669554589668624,66,97.32098137454854
19,0.03003003003003,0.2660047050889401,66,97.32098137454854
19,0.04004004004004,0.3542747497317996,66,97.32098137454854
19,0.05005005005005,0.4263729147153356,66,97.32098137454854
19,0.06006006006006,0.5051474211478866,66,97.32098137454854
19,0.07007007007007,0.5654036736415217,66,97.32098137454854
19,0.08008008008008,0.6230684667474179,66,97.32098137454854
19,0.09009009009009,0.6638319455402747,66,97.32098137454854
19,0.1001001001001,0.7101564560909264,66,97.32098137454854
19,0.1101101101101101,0.7415162184341231,66,97.32098137454854
19,0.1201201201201201,0.7661350206469254,66,97.32098137454854
19,0.1301301301301301,0.7685189423327441,66,97.32098137454854
19,0.1401401401401401,0.7753341027276024,66,97.32098137454854
19,0.1501501501501501,0.7702343038654635,66,97.32098137454854
19,0.1601601601601601,0.7602104788472358,66,97.32098137454854
19,0.1701701701701701,0.7310495065238364,66,97.32098137454854
19,0.1801801801801801,0.7112385097747429,66,97.32098137454854
19,0.1901901901901901,0.6745329481859429,66,97.32098137454854
19,0.2002002002002001,0.6307776479128564,66,97.32098137454854
19,0.2102102102102102,0.5931163979318401,66,97.32098137454854
19,0.2202202202202202,0.5385218542372294,66,97.32098137454854
19,0.2302302302302302,0.495296828416448,66,97.32098137454854
19,0.2402402402402402,0.4347924574196092,66,97.32098137454854
19,0.2502502502502503,0.4002204418974328,66,97.32098137454854
19,0.2602602602602603,0.341522018085699,66,97.32098137454854
19,0.2702702702702703,0.2939759496857759,66,97.32098137454854
19,0.2802802802802803,0.2459596518323936,66,97.32098137454854
19,0.2902902902902903,0.2063344664004395,66,97.32098137454854
19,0.3003003003003003,0.1665262821208693,66,97.32098137454854
19,0.3103103103103103,0.1339046296535954,66,97.32098137454854
19,0.3203203203203203,0.098516592218141,66,97.32098137454854
19,0.3303303303303303,0.073502973901556,66,97.32098137454854
19,0.3403403403403403,0.0548978389379449,66,97.32098137454854
19,0.3503503503503503,0.0339462716614397,66,97.32098137454854
19,0.3603603603603603,0.0239057020629337,66,97.32098137454854
19,0.3703703703703703,0.0147261841840535,66,97.32098137454854
19,0.3803803803803803,0.0015536865757465,66,97.32098137454854
19,0.3903903903903903,0.008306998923228,66,97.32098137454854
19,0.4004004004004003,0.0082139556039051,66,97.32098137454854
19,0.4104104104104104,5.4893052016024576e-05,66,97.32098137454854
19,0.4204204204204204,-0.0042233309048139,66,97.32098137454854
19,0.4304304304304304,-0.001672188882256,66,97.32098137454854
19,0.4404404404404404,0.0013400765905228,66,97.32098137454854
19,0.4504504504504504,-0.0033771569607149,66,97.32098137454854
19,0.4604604604604604,-0.0145160741847268,66,97.32098137454854
19,0.4704704704704704,-0.0171253664674373,66,97.32098137454854
19,0.4804804804804805,-0.0358642826734985,66,97.32098137454854
19,0.4904904904904905,-0.0453196007179262,66,97.32098137454854
19,0.5005005005005005,-0.0626882268519527,66,97.32098137454854
19,0.5105105105105106,-0.0944395711131515,66,97.32098137454854
19,0.5205205205205206,-0.1243337188379437,66,97.32098137454854
19,0.5305305305305306,-0.1573126372751634,66,97.32098137454854
19,0.5405405405405406,-0.1853020009492012,66,97.32098137454854
19,0.5505505505505506,-0.2386057313408331,66,97.32098137454854
19,0.5605605605605606,-0.2766714151794556,66,97.32098137454854
19,0.5705705705705706,-0.3284916363754898,66,97.32098137454854
19,0.5805805805805806,-0.3771045684768465,66,97.32098137454854
19,0.5905905905905906,-0.4317080668843259,66,97.32098137454854
19,0.6006006006006006,-0.4842053166651398,66,97.32098137454854
19,0.6106106106106106,-0.5383378215509769,66,97.32098137454854
19,0.6206206206206206,-0.5779088600851572,66,97.32098137454854
19,0.6306306306306306,-0.6238066288622974,66,97.32098137454854
19,0.6406406406406406,-0.6634891307721563,66,97.32098137454854
19,0.6506506506506506,-0.7098088079408115,66,97.32098137454854
19,0.6606606606606606,-0.7325202173263051,66,97.32098137454854
19,0.6706706706706707,-0.7562101520518116,66,97.32098137454854
19,0.6806806806806807,-0.7719805607271316,66,97.32098137454854
19,0.6906906906906907,-0.7795319001025669,66,97.32098137454854
19,0.7007007007007007,-0.7708407035512147,66,97.32098137454854
19,0.7107107107107107,-0.77233191637985,66,97.32098137454854
19,0.7207207207207207,-0.7482922066151204,66,97.32098137454854
19,0.7307307307307307,-0.7175317726077982,66,97.32098137454854
19,0.7407407407407407,-0.6788238229502098,66,97.32098137454854
19,0.7507507507507507,-0.6300081174340657,66,97.32098137454854
19,0.7607607607607607,-0.5840121731144718,66,97.32098137454854
19,0.7707707707707707,-0.5198734037884953,66,97.32098137454854
19,0.7807807807807807,-0.4547205357056225,66,97.32098137454854
19,0.7907907907907907,-0.3727019232144994,66,97.32098137454854
19,0.8008008008008007,-0.2865485408238628,66,97.32098137454854
19,0.8108108108108109,-0.1989055360313521,66,97.32098137454854
19,0.8208208208208209,-0.1092517975456631,66,97.32098137454854
19,0.8308308308308309,-0.011537538674794,66,97.32098137454854
19,0.8408408408408409,0.0681602581440969,66,97.32098137454854
19,0.8508508508508509,0.1579405410451433,66,97.32098137454854
19,0.8608608608608609,0.2487221696626869,66,97.32098137454854
19,0.8708708708708709,0.3308201657939834,66,97.32098137454854
19,0.8808808808808809,0.4124998347831051,66,97.32098137454854
19,0.8908908908908909,0.4791802900808156,66,97.32098137454854
19,0.9009009009009008,0.5406351398709108,66,97.32098137454854
19,0.9109109109109108,0.61351377855073,66,97.32098137454854
19,0.9209209209209208,0.6641272181487471,66,97.32098137454854
19,0.9309309309309308,0.6965050463290275,66,97.32098137454854
19,0.9409409409409408,0.7272081072563439,66,97.32098137454854
19,0.950950950950951,0.7539135934885384,66,97.32098137454854
19,0.960960960960961,0.7815376771644962,66,97.32098137454854
19,0.970970970970971,0.7778652282580802,66,97.32098137454854
19,0.980980980980981,0.7771833020808947,66,97.32098137454854
19,0.990990990990991,0.7730639284022933,66,97.32098137454854
19,1.001001001001001,0.7451911864518879,66,97.32098137454854
19,1.011011011011011,0.7199324897585835,66,97.32098137454854
19,1.021021021021021,0.6797100193448503,66,97.32098137454854
19,1.031031031031031,0.6378920830807358,66,97.32098137454854
19,1.0410410410410411,0.5979672641691329,66,97.32098137454854
19,1.0510510510510511,0.555425543184439,66,97.32098137454854
19,1.0610610610610611,0.5094251533860716,66,97.32098137454854
19,1.0710710710710711,0.4613131569983183,66,97.32098137454854
19,1.0810810810810811,0.4031214216004893,66,97.32098137454854
19,1.0910910910910911,0.353293190111711,66,97.32098137454854
19,1.1011011011011012,0.2989607217269512,66,97.32098137454854
19,1.1111111111111112,0.2614253226916129,66,97.32098137454854
19,1.1211211211211212,0.2210474879340548,66,97.32098137454854
19,1.1311311311311312,0.1767158186858777,66,97.32098137454854
19,1.1411411411411412,0.1288121811650696,66,97.32098137454854
19,1.1511511511511512,0.0956014627652549,66,97.32098137454854
19,1.1611611611611612,0.0707685172769264,66,97.32098137454854
19,1.1711711711711712,0.0468347901133106,66,97.32098137454854
19,1.1811811811811812,0.0411109194345414,66,97.32098137454854
19,1.1911911911911912,0.0313948799432608,66,97.32098137454854
19,1.2012012012012012,0.0159784960255692,66,97.32098137454854
19,1.2112112112112112,0.0085860946596109,66,97.32098137454854
19,1.2212212212212212,0.0044255554733858,66,97.32098137454854
19,1.2312312312312312,-0.0056942551837801,66,97.32098137454854
19,1.2412412412412412,-0.0120121404035052,66,97.32098137454854
19,1.2512512512512513,-0.0001278556943804,66,97.32098137454854
19,1.2612612612612613,-0.002666618210874,66,97.32098137454854
19,1.2712712712712713,0.0046425779051293,66,97.32098137454854
19,1.2812812812812813,-0.0036322380755117,66,97.32098137454854
19,1.2912912912912913,-0.0109230994983589,66,97.32098137454854
19,1.3013013013013013,-0.0205946152807861,66,97.32098137454854
19,1.3113113113113113,-0.0257567010513582,66,97.32098137454854
19,1.3213213213213213,-0.0500656645039358,66,97.32098137454854
19,1.3313313313313313,-0.0625686710071364,66,97.32098137454854
19,1.3413413413413413,-0.0833731087379473,66,97.32098137454854
19,1.351351351351351,-0.1186148768771695,66,97.32098137454854
19,1.361361361361361,-0.14886717910051,66,97.32098137454854
19,1.371371371371371,-0.1801479216846924,66,97.32098137454854
19,1.3813813813813811,-0.2282825728811649,66,97.32098137454854
19,1.3913913913913911,-0.275083024071962,66,97.32098137454854
19,1.4014014014014011,-0.3167574441297784,66,97.32098137454854
19,1.4114114114114114,-0.3558208386640107,66,97.32098137454854
19,1.4214214214214214,-0.4120240644888247,66,97.32098137454854
19,1.4314314314314314,-0.4635041971312111,66,97.32098137454854
19,1.4414414414414414,-0.5229433297184265,66,97.32098137454854
19,1.4514514514514514,-0.5623108413347763,66,97.32098137454854
19,1.4614614614614614,-0.6087981345075022,66,97.32098137454854
19,1.4714714714714714,-0.6452263097883681,66,97.32098137454854
19,1.4814814814814814,-0.6905364068761165,66,97.32098137454854
19,1.4914914914914914,-0.7265189596795723,66,97.32098137454854
19,1.5015015015015014,-0.7537814431571067,66,97.32098137454854
19,1.5115115115115114,-0.7591400338188323,66,97.32098137454854
19,1.5215215215215214,-0.7757569986954947,66,97.32098137454854
19,1.5315315315315314,-0.7755532054156462,66,97.32098137454854
19,1.5415415415415414,-0.7685615585362432,66,97.32098137454854
19,1.5515515515515514,-0.7520806035621274,66,97.32098137454854
19,1.5615615615615617,-0.7278749089712037,66,97.32098137454854
19,1.5715715715715717,-0.7004587462692591,66,97.32098137454854
19,1.5815815815815817,-0.6433615205935523,66,97.32098137454854
19,1.5915915915915917,-0.5956185947309939,66,97.32098137454854
19,1.6016016016016017,-0.5309573997375666,66,97.32098137454854
19,1.6116116116116117,-0.4699661174983608,66,97.32098137454854
19,1.6216216216216215,-0.3854088553833093,66,97.32098137454854
19,1.6316316316316315,-0.3079818042588634,66,97.32098137454854
19,1.6416416416416415,-0.2259695605163816,66,97.32098137454854
19,1.6516516516516515,-0.132769440356401,66,97.32098137454854
19,1.6616616616616615,-0.0454386252143639,66,97.32098137454854
19,1.6716716716716715,0.0420832033304876,66,97.32098137454854
19,1.6816816816816818,0.134367077097063,66,97.32098137454854
19,1.6916916916916918,0.2231115112265604,66,97.32098137454854
19,1.7017017017017018,0.3121293663749888,66,97.32098137454854
19,1.7117117117117118,0.3885635059257834,66,97.32098137454854
19,1.7217217217217218,0.4645484473012208,66,97.32098137454854
19,1.7317317317317318,0.5290790541478712,66,97.32098137454854
19,1.7417417417417418,0.5932582297831919,66,97.32098137454854
19,1.7517517517517518,0.6441187425762184,66,97.32098137454854
19,1.7617617617617618,0.6953151542129364,66,97.32098137454854
19,1.7717717717717718,0.7269077928985591,66,97.32098137454854
19,1.7817817817817818,0.7541280681363327,66,97.32098137454854
19,1.7917917917917918,0.7711948780399125,66,97.32098137454854
19,1.8018018018018016,0.782499896571127,66,97.32098137454854
19,1.811811811811812,0.7856094330038416,66,97.32098137454854
19,1.8218218218218216,0.7668832508181658,66,97.32098137454854
19,1.831831831831832,0.7557989143897945,66,97.32098137454854
19,1.8418418418418416,0.7269156077385832,66,97.32098137454854
19,1.851851851851852,0.694127075771988,66,97.32098137454854
19,1.8618618618618616,0.6595355700106668,66,97.32098137454854
19,1.871871871871872,0.6228587093347842,66,97.32098137454854
19,1.8818818818818817,0.576238330708412,66,97.32098137454854
19,1.891891891891892,0.5120240938282317,66,97.32098137454854
19,1.901901901901902,0.4732108155497003,66,97.32098137454854
19,1.911911911911912,0.4257600824280056,66,97.32098137454854
19,1.921921921921922,0.3598967094537156,66,97.32098137454854
19,1.931931931931932,0.3114589715181027,66,97.32098137454854
19,1.941941941941942,0.2738752039496323,66,97.32098137454854
19,1.951951951951952,0.2264019102129466,66,97.32098137454854
19,1.961961961961962,0.1938122048418966,66,97.32098137454854
19,1.971971971971972,0.1460370392300556,66,97.32098137454854
19,1.981981981981982,0.1135714419134687,66,97.32098137454854
19,1.991991991991992,0.0837329766668471,66,97.32098137454854
19,2.002002002002002,0.0636937060840638,66,97.32098137454854
19,2.012012012012012,0.0446595994740769,66,97.32098137454854
19,2.022022022022022,0.0244756166080155,66,97.32098137454854
19,2.032032032032032,0.017493324335803,66,97.32098137454854
19,2.042042042042042,0.0130817863932677,66,97.32098137454854
19,2.052052052052052,0.0021531091071245,66,97.32098137454854
19,2.062062062062062,0.0103826335254803,66,97.32098137454854
19,2.072072072072072,-0.0135164661897687,66,97.32098137454854
19,2.0820820820820822,-0.0023309092223223,66,97.32098137454854
19,2.092092092092092,0.0036144351761368,66,97.32098137454854
19,2.1021021021021022,-0.0001542255927735,66,97.32098137454854
19,2.112112112112112,-0.0046695034183161,66,97.32098137454854
19,2.1221221221221223,4.616628791124979e-05,66,97.32098137454854
19,2.1321321321321323,-0.0082517362675384,66,97.32098137454854
19,2.1421421421421423,-0.020831911873602,66,97.32098137454854
19,2.1521521521521523,-0.0300230789983692,66,97.32098137454854
19,2.1621621621621623,-0.0558705677953431,66,97.32098137454854
19,2.1721721721721723,-0.0835050035421916,66,97.32098137454854
19,2.1821821821821823,-0.112585733713663,66,97.32098137454854
19,2.1921921921921923,-0.1301434341684453,66,97.32098137454854
19,2.2022022022022023,-0.1829261472674604,66,97.32098137454854
19,2.2122122122122123,-0.2131275777499011,66,97.32098137454854
19,2.2222222222222223,-0.2611380329181719,66,97.32098137454854
19,2.2322322322322323,-0.3157813962185502,66,97.32098137454854
19,2.2422422422422423,-0.3550019593677722,66,97.32098137454854
19,2.2522522522522523,-0.4081726228729893,66,97.32098137454854
19,2.2622622622622623,-0.44451458942638,66,97.32098137454854
19,2.2722722722722724,-0.509994736948438,66,97.32098137454854
19,2.2822822822822824,-0.5556248589461663,66,97.32098137454854
19,2.2922922922922924,-0.6040653063298501,66,97.32098137454854
19,2.3023023023023024,-0.645563890880431,66,97.32098137454854
19,2.3123123123123124,-0.6786155128734713,66,97.32098137454854
19,2.3223223223223224,-0.7220128966911887,66,97.32098137454854
19,2.3323323323323324,-0.7400004069573856,66,97.32098137454854
19,2.3423423423423424,-0.7707517617112053,66,97.32098137454854
19,2.3523523523523524,-0.7688310364782144,66,97.32098137454854
19,2.3623623623623624,-0.7781483007375986,66,97.32098137454854
19,2.3723723723723724,-0.7774288319161381,66,97.32098137454854
19,2.3823823823823824,-0.7586092479051327,66,97.32098137454854
19,2.3923923923923924,-0.7312902121818341,66,97.32098137454854
19,2.4024024024024024,-0.7096602233832582,66,97.32098137454854
19,2.4124124124124124,-0.6578334974290291,66,97.32098137454854
19,2.4224224224224224,-0.6042581992782784,66,97.32098137454854
19,2.4324324324324325,-0.5498290647797327,66,97.32098137454854
19,2.4424424424424425,-0.4790129682449052,66,97.32098137454854
19,2.4524524524524525,-0.4092535388870611,66,97.32098137454854
19,2.4624624624624625,-0.3323709609100757,66,97.32098137454854
19,2.4724724724724725,-0.2360034625287016,66,97.32098137454854
19,2.4824824824824825,-0.1556223986869531,66,97.32098137454854
19,2.4924924924924925,-0.0736498269440815,66,97.32098137454854
19,2.5025025025025025,0.0207226243371479,66,97.32098137454854
19,2.5125125125125125,0.1208495043525434,66,97.32098137454854
19,2.5225225225225225,0.2005223670463814,66,97.32098137454854
19,2.5325325325325325,0.2899687315827589,66,97.32098137454854
19,2.5425425425425425,0.3653562420704989,66,97.32098137454854
19,2.5525525525525525,0.4470130540107987,66,97.32098137454854
19,2.5625625625625625,0.5155299359610417,66,97.32098137454854
19,2.5725725725725725,0.5744772931032741,66,97.32098137454854
19,2.5825825825825826,0.6289530137971895,66,97.32098137454854
19,2.592592592592593,0.6791517777966622,66,97.32098137454854
19,2.6026026026026026,0.7222381232332816,66,97.32098137454854
19,2.612612612612613,0.7455437839627286,66,97.32098137454854
19,2.6226226226226226,0.7655974218929114,66,97.32098137454854
19,2.6326326326326326,0.7799433727489444,66,97.32098137454854
19,2.6426426426426426,0.7719748684255856,66,97.32098137454854
19,2.6526526526526526,0.766448949864657,66,97.32098137454854
19,2.6626626626626626,0.7493228674014569,66,97.32098137454854
19,2.6726726726726726,0.729463011065863,66,97.32098137454854
19,2.6826826826826826,0.703163662503445,66,97.32098137454854
19,2.6926926926926926,0.6694645274853775,66,97.32098137454854
19,2.702702702702702,0.6265983863505828,66,97.32098137454854
19,2.7127127127127126,0.5820885876858563,66,97.32098137454854
19,2.722722722722722,0.5275713404440908,66,97.32098137454854
19,2.7327327327327327,0.4818751639737706,66,97.32098137454854
19,2.7427427427427427,0.4305163873169303,66,97.32098137454854
19,2.7527527527527527,0.382194497819307,66,97.32098137454854
19,2.7627627627627627,0.322953753375534,66,97.32098137454854
19,2.7727727727727727,0.2778238355463235,66,97.32098137454854
19,2.7827827827827827,0.2433313507972715,66,97.32098137454854
19,2.7927927927927927,0.1986172335928142,66,97.32098137454854
19,2.8028028028028027,0.1581464543067575,66,97.32098137454854
19,2.8128128128128127,0.1153435587963342,66,97.32098137454854
19,2.8228228228228227,0.093568066220712,66,97.32098137454854
19,2.8328328328328327,0.0733717191749044,66,97.32098137454854
19,2.8428428428428427,0.0480040157103493,66,97.32098137454854
19,2.8528528528528527,0.0310365459852804,66,97.32098137454854
19,2.8628628628628627,0.0203772930248679,66,97.32098137454854
19,2.8728728728728727,0.0097906335128896,66,97.32098137454854
19,2.8828828828828827,0.008434182844564,66,97.32098137454854
19,2.8928928928928928,-0.0028703082277867,66,97.32098137454854
19,2.9029029029029028,0.000652802652216,66,97.32098137454854
19,2.9129129129129128,0.0085764838551574,66,97.32098137454854
19,2.9229229229229228,-0.0049658564230663,66,97.32098137454854
19,2.932932932932933,0.0003493633864116,66,97.32098137454854
19,2.942942942942943,-0.0097023670697716,66,97.32098137454854
19,2.952952952952953,0.005122552479485,66,97.32098137454854
19,2.962962962962963,-0.0195818877784259,66,97.32098137454854
19,2.972972972972973,-0.0193266791893836,66,97.32098137454854
19,2.982982982982983,-0.0375729671401378,66,97.32098137454854
19,2.992992992992993,-0.0532697805906468,66,97.32098137454854
19,3.003003003003003,-0.0819471071142722,66,97.32098137454854
19,3.013013013013013,-0.0983154660015249,66,97.32098137454854
19,3.023023023023023,-0.1284707749001513,66,97.32098137454854
19,3.033033033033033,-0.1684598974286671,66,97.32098137454854
19,3.043043043043043,-0.2070161261240977,66,97.32098137454854
19,3.053053053053053,-0.2506651285106234,66,97.32098137454854
19,3.063063063063063,-0.3015265777230914,66,97.32098137454854
19,3.073073073073073,-0.3456106056894329,66,97.32098137454854
19,3.083083083083083,-0.3919765281000147,66,97.32098137454854
19,3.093093093093093,-0.4487255149635959,66,97.32098137454854
19,3.103103103103103,-0.4894179203664092,66,97.32098137454854
19,3.113113113113113,-0.5323340680500731,66,97.32098137454854
19,3.123123123123123,-0.5863910307392621,66,97.32098137454854
19,3.133133133133133,-0.627340496512428,66,97.32098137454854
19,3.143143143143143,-0.6747910763262925,66,97.32098137454854
19,3.153153153153153,-0.71080613230934,66,97.32098137454854
19,3.163163163163163,-0.7344290709701911,66,97.32098137454854
19,3.173173173173173,-0.7585846112346822,66,97.32098137454854
19,3.183183183183183,-0.7671635000389826,66,97.32098137454854
19,3.193193193193193,-0.7738504962231569,66,97.32098137454854
19,3.203203203203203,-0.7729061746986611,66,97.32098137454854
19,3.2132132132132134,-0.7725217055014676,66,97.32098137454854
19,3.2232232232232234,-0.7377316621870548,66,97.32098137454854
19,3.2332332332332334,-0.7129355486776608,66,97.32098137454854
19,3.2432432432432434,-0.6743061862339669,66,97.32098137454854
19,3.253253253253253,-0.6232721327306388,66,97.32098137454854
19,3.2632632632632634,-0.5636969265127036,66,97.32098137454854
19,3.273273273273273,-0.5008567308741216,66,97.32098137454854
19,3.2832832832832834,-0.4112769606871062,66,97.32098137454854
19,3.293293293293293,-0.3507651968176039,66,97.32098137454854
19,3.3033033033033035,-0.2662932242095271,66,97.32098137454854
19,3.313313313313313,-0.1831637997896102,66,97.32098137454854
19,3.3233233233233235,-0.0916717234976135,66,97.32098137454854
19,3.333333333333333,-5.318791406141031e-05,66,97.32098137454854
19,3.3433433433433435,0.0999302806544737,66,97.32098137454854
19,3.353353353353353,0.1858927743930557,66,97.32098137454854
19,3.3633633633633635,0.2662768332473033,66,97.32098137454854
19,3.373373373373373,0.3525513754361025,66,97.32098137454854
19,3.3833833833833835,0.4274197507503147,66,97.32098137454854
19,3.393393393393393,0.4982729259882103,66,97.32098137454854
19,3.4034034034034035,0.5490049835308732,66,97.32098137454854
19,3.413413413413413,0.6159394570453955,66,97.32098137454854
19,3.4234234234234235,0.6685186065110553,66,97.32098137454854
19,3.433433433433433,0.7057888105369642,66,97.32098137454854
19,3.443443443443444,0.7376362451057301,66,97.32098137454854
19,3.4534534534534536,0.7574621188159852,66,97.32098137454854
19,3.463463463463464,0.7704186877144912,66,97.32098137454854
19,3.4734734734734736,0.7880228328546164,66,97.32098137454854
19,3.483483483483484,0.7686988580652402,66,97.32098137454854
19,3.4934934934934936,0.7568935700050523,66,97.32098137454854
19,3.503503503503504,0.7337669894589911,66,97.32098137454854
19,3.5135135135135136,0.7066044935789211,66,97.32098137454854
19,3.523523523523524,0.6734785290655326,66,97.32098137454854
19,3.5335335335335336,0.6389279379011606,66,97.32098137454854
19,3.543543543543544,0.5866237595354551,66,97.32098137454854
19,3.5535535535535536,0.5430553439867587,66,97.32098137454854
19,3.563563563563564,0.4930818672288759,66,97.32098137454854
19,3.5735735735735736,0.4391134656399932,66,97.32098137454854
19,3.583583583583584,0.3979126421092612,66,97.32098137454854
19,3.5935935935935936,0.3426762124927209,66,97.32098137454854
19,3.603603603603604,0.3013139424170983,66,97.32098137454854
19,3.6136136136136137,0.2473856704910375,66,97.32098137454854
19,3.623623623623624,0.2086910297231823,66,97.32098137454854
19,3.6336336336336337,0.1724456161693314,66,97.32098137454854
19,3.643643643643644,0.1337532296877853,66,97.32098137454854
19,3.6536536536536537,0.0979208957552564,66,97.32098137454854
19,3.663663663663664,0.0835015481258971,66,97.32098137454854
19,3.6736736736736737,0.0526669414889437,66,97.32098137454854
19,3.683683683683684,0.0385306898516813,66,97.32098137454854
19,3.6936936936936937,0.0197194461699026,66,97.32098137454854
19,3.703703703703704,0.0046617685377897,66,97.32098137454854
19,3.7137137137137137,0.0054653514461026,66,97.32098137454854
19,3.723723723723724,-0.0020758510117063,66,97.32098137454854
19,3.7337337337337337,0.0019479110342247,66,97.32098137454854
19,3.743743743743744,0.0075452966647068,66,97.32098137454854
19,3.7537537537537538,0.0014922417830697,66,97.32098137454854
19,3.763763763763764,0.0005684251611406,66,97.32098137454854
19,3.7737737737737738,-0.0073100040477651,66,97.32098137454854
19,3.783783783783784,-0.0157156939964319,66,97.32098137454854
19,3.793793793793794,-0.0148497922172216,66,97.32098137454854
19,3.803803803803804,-0.0166766726525151,66,97.32098137454854
19,3.813813813813814,-0.0312382461449708,66,97.32098137454854
19,3.823823823823824,-0.0400794131968829,66,97.32098137454854
19,3.833833833833834,-0.0660223744828125,66,97.32098137454854
19,3.843843843843844,-0.0920352327537565,66,97.32098137454854
19,3.853853853853854,-0.1254861535602934,66,97.32098137454854
19,3.863863863863864,-0.1604870648232422,66,97.32098137454854
19,3.873873873873874,-0.1878859459951949,66,97.32098137454854
19,3.883883883883884,-0.2416000913253148,66,97.32098137454854
19,3.893893893893894,-0.2795351011127366,66,97.32098137454854
19,3.903903903903904,-0.3188159966407461,66,97.32098137454854
19,3.913913913913914,-0.3802263165835558,66,97.32098137454854
19,3.923923923923924,-0.4307368320866914,66,97.32098137454854
19,3.933933933933934,-0.4864340342787743,66,97.32098137454854
19,3.943943943943944,-0.5340320619663019,66,97.32098137454854
19,3.953953953953954,-0.5750143143381006,66,97.32098137454854
19,3.963963963963964,-0.6268183855050539,66,97.32098137454854
19,3.973973973973974,-0.6701523196835293,66,97.32098137454854
19,3.983983983983984,-0.6989308676759619,66,97.32098137454854
19,3.993993993993994,-0.7278486602858917,66,97.32098137454854
19,4.004004004004004,-0.7522421667710181,66,97.32098137454854
19,4.014014014014014,-0.7718186897539374,66,97.32098137454854
19,4.024024024024024,-0.7779527871591209,66,97.32098137454854
19,4.034034034034034,-0.776482958830958,66,97.32098137454854
19,4.044044044044044,-0.7747741700173981,66,97.32098137454854
19,4.054054054054054,-0.7464918897768714,66,97.32098137454854
19,4.064064064064064,-0.7081367613917787,66,97.32098137454854
19,4.074074074074074,-0.6809471991233527,66,97.32098137454854
19,4.084084084084084,-0.6328426903924858,66,97.32098137454854
19,4.094094094094094,-0.578747709827086,66,97.32098137454854
19,4.104104104104104,-0.5092637568251599,66,97.32098137454854
19,4.114114114114114,-0.4502563961989829,66,97.32098137454854
19,4.124124124124124,-0.3608423642412207,66,97.32098137454854
19,4.134134134134134,-0.288465355819594,66,97.32098137454854
19,4.144144144144144,-0.1972302708152186,66,97.32098137454854
19,4.1541541541541545,-0.1225233475499381,66,97.32098137454854
19,4.1641641641641645,-0.0314616785997417,66,97.32098137454854
19,4.174174174174175,0.0690733202007699,66,97.32098137454854
19,4.1841841841841845,0.160140050161281,66,97.32098137454854
19,4.1941941941941945,0.2508565960669912,66,97.32098137454854
19,4.2042042042042045,0.3257565848893147,66,97.32098137454854
19,4.214214214214215,0.4094479243559233,66,97.32098137454854
19,4.2242242242242245,0.4848663083522544,66,97.32098137454854
19,4.2342342342342345,0.5381093203958487,66,97.32098137454854
19,4.2442442442442445,0.6104347068150232,66,97.32098137454854
19,4.254254254254255,0.6665129491633272,66,97.32098137454854
19,4.2642642642642645,0.70380415015242,66,97.32098137454854
19,4.2742742742742745,0.7338561445857701,66,97.32098137454854
19,4.2842842842842845,0.7534549398619113,66,97.32098137454854
19,4.294294294294295,0.7799814726230804,66,97.32098137454854
19,4.3043043043043046,0.7727924538079607,66,97.32098137454854
19,4.314314314314315,0.7717045561329475,66,97.32098137454854
19,4.324324324324325,0.7592460072210764,66,97.32098137454854
19,4.334334334334335,0.7465025420059993,66,97.32098137454854
19,4.344344344344345,0.7083853398899057,66,97.32098137454854
19,4.354354354354355,0.6889748620088658,66,97.32098137454854
19,4.364364364364365,0.6417589355457034,66,97.32098137454854
19,4.374374374374375,0.6026218578146265,66,97.32098137454854
19,4.384384384384385,0.5654914372280735,66,97.32098137454854
19,4.394394394394395,0.5084702942304117,66,97.32098137454854
19,4.404404404404405,0.4567002606926804,66,97.32098137454854
19,4.414414414414415,0.4033132741987159,66,97.32098137454854
19,4.424424424424425,0.3476112662079993,66,97.32098137454854
19,4.434434434434435,0.3052029654447725,66,97.32098137454854
19,4.444444444444445,0.2614373438937604,66,97.32098137454854
19,4.454454454454455,0.2133205443595365,66,97.32098137454854
19,4.464464464464465,0.1801460697476909,66,97.32098137454854
19,4.474474474474475,0.1335172363711649,66,97.32098137454854
19,4.484484484484485,0.1067691427877951,66,97.32098137454854
19,4.494494494494495,0.0845537680499326,66,97.32098137454854
19,4.504504504504505,0.0463457409831038,66,97.32098137454854
19,4.514514514514515,0.0374180290125312,66,97.32098137454854
19,4.524524524524525,0.0274436670236283,66,97.32098137454854
19,4.534534534534535,0.0146671835426423,66,97.32098137454854
19,4.544544544544545,0.0047208526897299,66,97.32098137454854
19,4.554554554554555,0.0069158751485311,66,97.32098137454854
19,4.564564564564565,0.0038962016914157,66,97.32098137454854
19,4.574574574574575,0.0080517907960918,66,97.32098137454854
19,4.584584584584585,0.001965364156818,66,97.32098137454854
19,4.594594594594595,0.0002341606595205,66,97.32098137454854
19,4.604604604604605,-0.0065280132823809,66,97.32098137454854
19,4.614614614614615,-0.0088111495175753,66,97.32098137454854
19,4.624624624624625,-0.004452550275982,66,97.32098137454854
19,4.634634634634635,-0.0262094802315492,66,97.32098137454854
19,4.644644644644645,-0.023194636738791,66,97.32098137454854
19,4.654654654654655,-0.0430892799560149,66,97.32098137454854
19,4.664664664664665,-0.0637200963917562,66,97.32098137454854
19,4.674674674674675,-0.0834588364720763,66,97.32098137454854
19,4.684684684684685,-0.1160853645622819,66,97.32098137454854
19,4.694694694694695,-0.1509726612319091,66,97.32098137454854
19,4.704704704704705,-0.1744856789042986,66,97.32098137454854
19,4.714714714714715,-0.2267857388710551,66,97.32098137454854
19,4.724724724724725,-0.2758418282658254,66,97.32098137454854
19,4.734734734734735,-0.3181057723668126,66,97.32098137454854
19,4.744744744744745,-0.3612151775439663,66,97.32098137454854
19,4.754754754754755,-0.4305624711566914,66,97.32098137454854
19,4.764764764764765,-0.4786667429384056,66,97.32098137454854
19,4.774774774774775,-0.5124830918442442,66,97.32098137454854
19,4.784784784784785,-0.5702952638171798,66,97.32098137454854
19,4.794794794794795,-0.6183933710012043,66,97.32098137454854
19,4.804804804804805,-0.656858217226574,66,97.32098137454854
19,4.814814814814815,-0.7036648718063124,66,97.32098137454854
19,4.824824824824825,-0.7277201658715664,66,97.32098137454854
19,4.834834834834835,-0.7526013099830587,66,97.32098137454854
19,4.844844844844845,-0.7744262651114829,66,97.32098137454854
19,4.854854854854855,-0.7856628223223246,66,97.32098137454854
19,4.864864864864865,-0.7816505405179055,66,97.32098137454854
19,4.874874874874875,-0.7686455279623078,66,97.32098137454854
19,4.884884884884885,-0.74724829578138,66,97.32098137454854
19,4.894894894894895,-0.7384741237160422,66,97.32098137454854
19,4.904904904904905,-0.6909611204441761,66,97.32098137454854
19,4.914914914914915,-0.6496712059794609,66,97.32098137454854
19,4.924924924924925,-0.5901440025152507,66,97.32098137454854
19,4.934934934934935,-0.531662116631998,66,97.32098137454854
19,4.944944944944945,-0.4734172348098045,66,97.32098137454854
19,4.954954954954955,-0.3936359189117094,66,97.32098137454854
19,4.964964964964965,-0.3193400261705138,66,97.32098137454854
19,4.974974974974975,-0.2241088530815813,66,97.32098137454854
19,4.984984984984985,-0.138885307668535,66,97.32098137454854
19,4.994994994994995,-0.0507700330765561,66,97.32098137454854
19,5.005005005005005,0.0402102367395106,66,97.32098137454854
19,5.015015015015015,0.1336871831807834,66,97.32098137454854
19,5.025025025025025,0.2200474574410938,66,97.32098137454854
19,5.035035035035035,0.3109763172932002,66,97.32098137454854
19,5.045045045045045,0.3882318561452575,66,97.32098137454854
19,5.055055055055055,0.4810283401341478,66,97.32098137454854
19,5.065065065065065,0.5350249213100714,66,97.32098137454854
19,5.075075075075075,0.6052263004802689,66,97.32098137454854
19,5.085085085085085,0.6542671464690162,66,97.32098137454854
19,5.095095095095095,0.6886352852750713,66,97.32098137454854
19,5.105105105105105,0.7245315782648322,66,97.32098137454854
19,5.115115115115115,0.7512388055459036,66,97.32098137454854
19,5.125125125125125,0.7669618790248077,66,97.32098137454854
19,5.135135135135135,0.7775711269724508,66,97.32098137454854
19,5.145145145145145,0.7772829821034376,66,97.32098137454854
19,5.155155155155155,0.771347502747876,66,97.32098137454854
19,5.165165165165165,0.757598228018779,66,97.32098137454854
19,5.175175175175175,0.731051812095179,66,97.32098137454854
19,5.185185185185185,0.6919617700306816,66,97.32098137454854
19,5.195195195195195,0.6633374477599503,66,97.32098137454854
19,5.205205205205205,0.6085226121597901,66,97.32098137454854
19,5.215215215215215,0.5685035313533039,66,97.32098137454854
19,5.225225225225225,0.5116327346315739,66,97.32098137454854
19,5.235235235235235,0.4634591281363138,66,97.32098137454854
19,5.245245245245245,0.4162908829273478,66,97.32098137454854
19,5.255255255255255,0.368258902661925,66,97.32098137454854
19,5.265265265265265,0.3201353135482304,66,97.32098137454854
19,5.275275275275275,0.2684844048653356,66,97.32098137454854
19,5.285285285285285,0.229412773449836,66,97.32098137454854
19,5.295295295295295,0.1787628511759045,66,97.32098137454854
19,5.305305305305305,0.1558603229723192,66,97.32098137454854
19,5.315315315315315,0.1188006303201827,66,97.32098137454854
19,5.325325325325325,0.0906684545267023,66,97.32098137454854
19,5.335335335335335,0.063501229203639,66,97.32098137454854
19,5.345345345345345,0.0526684063113275,66,97.32098137454854
19,5.355355355355355,0.0275127310803246,66,97.32098137454854
19,5.365365365365365,0.0153418168058045,66,97.32098137454854
19,5.375375375375375,0.0103053430797329,66,97.32098137454854
19,5.385385385385385,-0.000541200346624,66,97.32098137454854
19,5.395395395395395,0.0063187690940934,66,97.32098137454854
19,5.405405405405405,0.0057451049740145,66,97.32098137454854
19,5.415415415415415,0.004872422893601,66,97.32098137454854
19,5.425425425425425,-0.0056900275612633,66,97.32098137454854
19,5.435435435435435,-0.0034126558647685,66,97.32098137454854
19,5.445445445445445,-0.003803236659827,66,97.32098137454854
19,5.455455455455455,-0.0056277523593441,66,97.32098137454854
19,5.465465465465465,-0.0109387212849089,66,97.32098137454854
19,5.475475475475475,-0.021530858974408,66,97.32098137454854
19,5.485485485485485,-0.0333105305550249,66,97.32098137454854
19,5.495495495495495,-0.0554462972734343,66,97.32098137454854
19,5.505505505505505,-0.0787825928120006,66,97.32098137454854
19,5.515515515515515,-0.0982288026572678,66,97.32098137454854
19,5.525525525525525,-0.1404523279237246,66,97.32098137454854
19,5.535535535535535,-0.1698695681762538,66,97.32098137454854
19,5.545545545545545,-0.2111783565116507,66,97.32098137454854
19,5.555555555555555,-0.2568284991644759,66,97.32098137454854
19,5.565565565565565,-0.3062498281343798,66,97.32098137454854
19,5.575575575575575,-0.3575540273483508,66,97.32098137454854
19,5.585585585585585,-0.4075612152935088,66,97.32098137454854
19,5.595595595595595,-0.4613919051159836,66,97.32098137454854
19,5.605605605605605,-0.5045865929567074,66,97.32098137454854
19,5.615615615615615,-0.5507014974902246,66,97.32098137454854
19,5.625625625625625,-0.6040477615215926,66,97.32098137454854
19,5.635635635635635,-0.6456262527815531,66,97.32098137454854
19,5.645645645645645,-0.6891000570391576,66,97.32098137454854
19,5.655655655655655,-0.7197487375309263,66,97.32098137454854
19,5.665665665665665,-0.746176712970435,66,97.32098137454854
19,5.675675675675675,-0.7672907662204456,66,97.32098137454854
19,5.685685685685685,-0.7849673423113466,66,97.32098137454854
19,5.695695695695696,-0.7786273602748108,66,97.32098137454854
19,5.7057057057057055,-0.7756777941442387,66,97.32098137454854
19,5.715715715715716,-0.7509052845222922,66,97.32098137454854
19,5.7257257257257255,-0.7348996263936701,66,97.32098137454854
19,5.735735735735736,-0.6967681995572687,66,97.32098137454854
19,5.7457457457457455,-0.6545386491895665,66,97.32098137454854
19,5.755755755755756,-0.6132815192133783,66,97.32098137454854
19,5.7657657657657655,-0.5474661717461291,66,97.32098137454854
19,5.775775775775776,-0.4796117570481335,66,97.32098137454854
19,5.7857857857857855,-0.4056851909598331,66,97.32098137454854
19,5.795795795795796,-0.333547614076541,66,97.32098137454854
19,5.8058058058058055,-0.2441617716912646,66,97.32098137454854
19,5.815815815815816,-0.1571473644996412,66,97.32098137454854
19,5.8258258258258255,-0.0650546478586877,66,97.32098137454854
19,5.835835835835836,0.0215460861451528,66,97.32098137454854
19,5.8458458458458455,0.1097599874752165,66,97.32098137454854
19,5.855855855855856,0.2027426381041193,66,97.32098137454854
19,5.865865865865866,0.2918627573079018,66,97.32098137454854
19,5.875875875875876,0.360651286143347,66,97.32098137454854
19,5.885885885885886,0.446100947957413,66,97.32098137454854
19,5.895895895895896,0.5226858753557295,66,97.32098137454854
19,5.905905905905906,0.5765722432133812,66,97.32098137454854
19,5.915915915915916,0.6343568864501228,66,97.32098137454854
19,5.925925925925926,0.6869106231440152,66,97.32098137454854
19,5.935935935935936,0.7233472041978741,66,97.32098137454854
19,5.945945945945946,0.745341741913018,66,97.32098137454854
19,5.955955955955956,0.7688929007899113,66,97.32098137454854
19,5.965965965965966,0.7865086172282546,66,97.32098137454854
19,5.975975975975976,0.7811308794630504,66,97.32098137454854
19,5.985985985985986,0.7709034712650272,66,97.32098137454854
19,5.995995995995996,0.7664648758603192,66,97.32098137454854
19,6.006006006006006,0.7305127415074261,66,97.32098137454854
19,6.016016016016016,0.70275951772744,66,97.32098137454854
19,6.026026026026026,0.6609380477691146,66,97.32098137454854
19,6.036036036036036,0.6207300442363181,66,97.32098137454854
19,6.046046046046046,0.5844354630910008,66,97.32098137454854
19,6.056056056056056,0.5339883138205246,66,97.32098137454854
19,6.066066066066066,0.4814682902335146,66,97.32098137454854
19,6.076076076076076,0.4421741448564694,66,97.32098137454854
19,6.086086086086086,0.3827281583654738,66,97.32098137454854
19,6.096096096096096,0.3320164294664559,66,97.32098137454854
19,6.106106106106106,0.2797845133521123,66,97.32098137454854
19,6.116116116116116,0.2344394757283991,66,97.32098137454854
19,6.126126126126126,0.1996982010577335,66,97.32098137454854
19,6.136136136136136,0.1537682721417969,66,97.32098137454854
19,6.146146146146146,0.1331462129050444,66,97.32098137454854
19,6.156156156156156,0.0914513948757779,66,97.32098137454854
19,6.166166166166166,0.0694904400101392,66,97.32098137454854
19,6.176176176176176,0.0485707068802092,66,97.32098137454854
19,6.186186186186186,0.0315414217653179,66,97.32098137454854
19,6.196196196196196,0.0211986079893384,66,97.32098137454854
19,6.206206206206206,0.0066126470970078,66,97.32098137454854
19,6.216216216216216,0.013513386912361,66,97.32098137454854
19,6.226226226226226,0.0052614121925047,66,97.32098137454854
19,6.236236236236236,-0.0013689094347426,66,97.32098137454854
19,6.246246246246246,-0.0082581157767546,66,97.32098137454854
19,6.256256256256256,-0.0020302483908211,66,97.32098137454854
19,6.266266266266266,0.002027601520991,66,97.32098137454854
19,6.276276276276276,-0.0044146245629627,66,97.32098137454854
19,6.286286286286286,-0.0012353541598764,66,97.32098137454854
19,6.296296296296296,-0.0055575037624244,66,97.32098137454854
19,6.306306306306306,-0.022391776235375,66,97.32098137454854
19,6.316316316316316,-0.040307010722678,66,97.32098137454854
19,6.326326326326326,-0.0488629529425772,66,97.32098137454854
19,6.336336336336336,-0.0751945583639625,66,97.32098137454854
19,6.346346346346346,-0.0987909473860255,66,97.32098137454854
19,6.356356356356356,-0.1327705021449225,66,97.32098137454854
19,6.366366366366366,-0.1653323057784844,66,97.32098137454854
19,6.376376376376376,-0.1941331782209052,66,97.32098137454854
19,6.386386386386386,-0.2497944412378857,66,97.32098137454854
19,6.396396396396396,-0.2962263116526841,66,97.32098137454854
19,6.406406406406406,-0.3435302855668281,66,97.32098137454854
19,6.416416416416417,-0.3956082012435334,66,97.32098137454854
19,6.426426426426427,-0.4480927019420849,66,97.32098137454854
19,6.436436436436437,-0.4966293265694164,66,97.32098137454854
19,6.446446446446447,-0.5476049798857966,66,97.32098137454854
19,6.456456456456457,-0.5878115994004696,66,97.32098137454854
19,6.466466466466467,-0.6398046188491886,66,97.32098137454854
19,6.476476476476477,-0.6901008594044802,66,97.32098137454854
19,6.486486486486487,-0.7118706332695036,66,97.32098137454854
19,6.496496496496497,-0.7355624120690514,66,97.32098137454854
19,6.506506506506507,-0.7621984156287192,66,97.32098137454854
19,6.516516516516517,-0.7691294402311843,66,97.32098137454854
19,6.526526526526527,-0.7781125241892393,66,97.32098137454854
19,6.536536536536537,-0.7791752673163583,66,97.32098137454854
19,6.546546546546547,-0.7657457915755189,66,97.32098137454854
19,6.556556556556557,-0.7468370427734758,66,97.32098137454854
19,6.566566566566567,-0.7119685834629572,66,97.32098137454854
19,6.576576576576577,-0.6680990252460576,66,97.32098137454854
19,6.586586586586587,-0.6187040383311762,66,97.32098137454854
19,6.596596596596597,-0.5573831670899286,66,97.32098137454854
19,6.606606606606607,-0.4924951262803439,66,97.32098137454854
19,6.616616616616617,-0.4235638993356644,66,97.32098137454854
19,6.626626626626627,-0.3473865122078914,66,97.32098137454854
19,6.636636636636637,-0.2585863552780469,66,97.32098137454854
19,6.646646646646647,-0.1777400588594447,66,97.32098137454854
19,6.656656656656657,-0.0825080724119481,66,97.32098137454854
19,6.666666666666667,-0.0019326706524574,66,97.32098137454854
19,6.676676676676677,0.09435183318631,66,97.32098137454854
19,6.686686686686687,0.1775218706293144,66,97.32098137454854
19,6.696696696696697,0.2646684674061031,66,97.32098137454854
19,6.706706706706707,0.3487817702126904,66,97.32098137454854
19,6.716716716716717,0.4283434725766447,66,97.32098137454854
19,6.726726726726727,0.4939961625789388,66,97.32098137454854
19,6.736736736736737,0.5658779227922636,66,97.32098137454854
19,6.746746746746747,0.6151415070127305,66,97.32098137454854
19,6.756756756756757,0.6654892432879248,66,97.32098137454854
19,6.766766766766767,0.7168823994526128,66,97.32098137454854
19,6.776776776776777,0.7323102539058798,66,97.32098137454854
19,6.786786786786787,0.7571710470616757,66,97.32098137454854
19,6.796796796796797,0.7756562804744139,66,97.32098137454854
19,6.806806806806807,0.7754106867022935,66,97.32098137454854
19,6.816816816816817,0.7802224625294684,66,97.32098137454854
19,6.826826826826827,0.7596542233780615,66,97.32098137454854
19,6.836836836836837,0.7368310118077234,66,97.32098137454854
19,6.846846846846847,0.7119054315151043,66,97.32098137454854
19,6.856856856856857,0.6791628661561127,66,97.32098137454854
19,6.866866866866867,0.6345320597474936,66,97.32098137454854
19,6.876876876876877,0.5904106998394911,66,97.32098137454854
19,6.886886886886887,0.5447557039182194,66,97.32098137454854
19,6.896896896896897,0.4974782727029321,66,97.32098137454854
19,6.906906906906907,0.4451659154696774,66,97.32098137454854
19,6.916916916916917,0.3928275638144198,66,97.32098137454854
19,6.926926926926927,0.3510182442747159,66,97.32098137454854
19,6.936936936936937,0.2880413130154295,66,97.32098137454854
19,6.946946946946947,0.2470351244449931,66,97.32098137454854
19,6.956956956956957,0.2119688176430702,66,97.32098137454854
19,6.966966966966967,0.1712396334145431,66,97.32098137454854
19,6.976976976976977,0.1299244659386768,66,97.32098137454854
19,6.986986986986987,0.1055563026127371,66,97.32098137454854
19,6.996996996996997,0.0763855321309288,66,97.32098137454854
19,7.007007007007007,0.049509229280965,66,97.32098137454854
19,7.017017017017017,0.0396605026956581,66,97.32098137454854
19,7.027027027027027,0.0235204440020735,66,97.32098137454854
19,7.037037037037037,0.0108924130522918,66,97.32098137454854
19,7.047047047047047,0.0081629450477258,66,97.32098137454854
19,7.057057057057057,0.0009968789452266,66,97.32098137454854
19,7.067067067067067,-0.0071990410501729,66,97.32098137454854
19,7.077077077077077,0.0051837726613593,66,97.32098137454854
19,7.087087087087087,-0.0085447113490232,66,97.32098137454854
19,7.097097097097097,-0.0037154455344635,66,97.32098137454854
19,7.107107107107107,-0.0032407910148872,66,97.32098137454854
19,7.117117117117117,-0.0009062289985277,66,97.32098137454854
19,7.127127127127127,-0.015677218141799,66,97.32098137454854
19,7.137137137137137,-0.0160549853393161,66,97.32098137454854
19,7.147147147147147,-0.0258520287408935,66,97.32098137454854
19,7.157157157157157,-0.0463953943416885,66,97.32098137454854
19,7.167167167167167,-0.070204771169174,66,97.32098137454854
19,7.177177177177177,-0.0890657577348459,66,97.32098137454854
19,7.187187187187187,-0.123699021081232,66,97.32098137454854
19,7.197197197197197,-0.1679276872962305,66,97.32098137454854
19,7.207207207207207,-0.1946695564290761,66,97.32098137454854
19,7.217217217217217,-0.2446867910647314,66,97.32098137454854
19,7.227227227227227,-0.2906123957866161,66,97.32098137454854
19,7.237237237237237,-0.3251841271057539,66,97.32098137454854
19,7.247247247247247,-0.3908452101057436,66,97.32098137454854
19,7.257257257257257,-0.4326592379888566,66,97.32098137454854
19,7.267267267267267,-0.4879372491926071,66,97.32098137454854
19,7.277277277277277,-0.536763882098329,66,97.32098137454854
19,7.287287287287287,-0.5744356463106151,66,97.32098137454854
19,7.297297297297297,-0.6296553375001989,66,97.32098137454854
19,7.307307307307307,-0.6664532474291912,66,97.32098137454854
19,7.317317317317317,-0.7001247710191322,66,97.32098137454854
19,7.327327327327327,-0.7355313704026978,66,97.32098137454854
19,7.337337337337337,-0.7555240461381166,66,97.32098137454854
19,7.347347347347347,-0.7680896155821726,66,97.32098137454854
19,7.357357357357357,-0.7785270174636013,66,97.32098137454854
19,7.367367367367367,-0.7741569500441398,66,97.32098137454854
19,7.377377377377377,-0.7566668284880396,66,97.32098137454854
19,7.387387387387387,-0.7524103466976453,66,97.32098137454854
19,7.397397397397397,-0.7217591689503269,66,97.32098137454854
19,7.407407407407407,-0.6721456639399822,66,97.32098137454854
19,7.4174174174174174,-0.6320875175365038,66,97.32098137454854
19,7.4274274274274275,-0.581869948017652,66,97.32098137454854
19,7.437437437437437,-0.5183954629863645,66,97.32098137454854
19,7.447447447447447,-0.4536495582646481,66,97.32098137454854
19,7.4574574574574575,-0.3680585045804584,66,97.32098137454854
19,7.4674674674674675,-0.2863062750151379,66,97.32098137454854
19,7.477477477477477,-0.2019537033173249,66,97.32098137454854
19,7.487487487487487,-0.1063309325958269,66,97.32098137454854
19,7.4974974974974975,-0.0245400208010415,66,97.32098137454854
19,7.5075075075075075,0.0703512901690533,66,97.32098137454854
19,7.517517517517517,0.1627114291869606,66,97.32098137454854
19,7.527527527527527,0.2416299187162187,66,97.32098137454854
19,7.5375375375375375,0.3247144127033521,66,97.32098137454854
19,7.5475475475475475,0.4112467707356514,66,97.32098137454854
19,7.557557557557557,0.4796477554829662,66,97.32098137454854
19,7.567567567567567,0.545789047149023,66,97.32098137454854
19,7.5775775775775776,0.6026504156360041,66,97.32098137454854
19,7.587587587587588,0.6701752063638328,66,97.32098137454854
19,7.597597597597598,0.6972935051390851,66,97.32098137454854
19,7.607607607607608,0.7352689818159861,66,97.32098137454854
19,7.617617617617618,0.7645269503333653,66,97.32098137454854
19,7.627627627627628,0.7795576592478534,66,97.32098137454854
19,7.637637637637638,0.7898241891655946,66,97.32098137454854
19,7.647647647647648,0.7841019219832578,66,97.32098137454854
19,7.657657657657658,0.7634939516142978,66,97.32098137454854
19,7.667667667667668,0.7381506437566937,66,97.32098137454854
19,7.677677677677678,0.7177306489711769,66,97.32098137454854
19,7.687687687687688,0.6902615353257656,66,97.32098137454854
19,7.697697697697698,0.6565096865221471,66,97.32098137454854
19,7.707707707707708,0.6004510730067563,66,97.32098137454854
19,7.717717717717718,0.5593840283645871,66,97.32098137454854
19,7.727727727727728,0.5114100798120728,66,97.32098137454854
19,7.737737737737738,0.462364557151073,66,97.32098137454854
19,7.747747747747748,0.4016144652046559,66,97.32098137454854
19,7.757757757757758,0.3502211512719063,66,97.32098137454854
19,7.767767767767768,0.3086091235024815,66,97.32098137454854
19,7.777777777777778,0.2604814179820571,66,97.32098137454854
19,7.787787787787788,0.2064618866241638,66,97.32098137454854
19,7.797797797797798,0.1766814410181887,66,97.32098137454854
19,7.807807807807808,0.1421567376580588,66,97.32098137454854
19,7.817817817817818,0.1061854583255988,66,97.32098137454854
19,7.827827827827828,0.076675026574719,66,97.32098137454854
19,7.837837837837838,0.0581918341213879,66,97.32098137454854
19,7.847847847847848,0.0403018520769889,66,97.32098137454854
19,7.857857857857858,0.0275238368213619,66,97.32098137454854
19,7.867867867867868,0.014318173840312,66,97.32098137454854
19,7.877877877877878,0.0014046600386129,66,97.32098137454854
19,7.887887887887888,0.0023564079138238,66,97.32098137454854
19,7.897897897897898,0.0007687658706746,66,97.32098137454854
19,7.907907907907908,-0.0076026066657483,66,97.32098137454854
19,7.917917917917918,0.0011551786338917,66,97.32098137454854
19,7.927927927927928,-0.0027571854760177,66,97.32098137454854
19,7.937937937937938,0.0012178901623835,66,97.32098137454854
19,7.947947947947948,-0.0050192793236291,66,97.32098137454854
19,7.957957957957958,-0.0106945885118904,66,97.32098137454854
19,7.967967967967968,-0.0122999394955142,66,97.32098137454854
19,7.977977977977978,-0.0215436215353055,66,97.32098137454854
19,7.987987987987988,-0.0498517348989159,66,97.32098137454854
19,7.997997997997998,-0.0613348390300278,66,97.32098137454854
19,8.008008008008009,-0.0893776024830906,66,97.32098137454854
19,8.018018018018019,-0.1100566457147419,66,97.32098137454854
19,8.028028028028029,-0.1521350874906143,66,97.32098137454854
19,8.038038038038039,-0.1849205780892894,66,97.32098137454854
19,8.048048048048049,-0.2239525583097268,66,97.32098137454854
19,8.058058058058059,-0.2705231628673501,66,97.32098137454854
19,8.068068068068069,-0.3062847063697089,66,97.32098137454854
19,8.078078078078079,-0.3689245185694446,66,97.32098137454854
19,8.088088088088089,-0.4195037534231511,66,97.32098137454854
19,8.098098098098099,-0.4618049409415997,66,97.32098137454854
19,8.108108108108109,-0.5244503215470475,66,97.32098137454854
19,8.118118118118119,-0.570447233273398,66,97.32098137454854
19,8.128128128128129,-0.6179706977399012,66,97.32098137454854
19,8.138138138138139,-0.6560930867811893,66,97.32098137454854
19,8.148148148148149,-0.6908537835330698,66,97.32098137454854
19,8.158158158158159,-0.7299404523892064,66,97.32098137454854
19,8.168168168168169,-0.7471407079934751,66,97.32098137454854
19,8.178178178178179,-0.7696379792168531,66,97.32098137454854
19,8.188188188188189,-0.7764945899184396,66,97.32098137454854
19,8.198198198198199,-0.7830419920343062,66,97.32098137454854
19,8.208208208208209,-0.7650348251288817,66,97.32098137454854
19,8.218218218218219,-0.7484164220643924,66,97.32098137454854
19,8.228228228228229,-0.7296826030976206,66,97.32098137454854
19,8.238238238238239,-0.6910750825585918,66,97.32098137454854
19,8.248248248248249,-0.6411919125073733,66,97.32098137454854
19,8.258258258258259,-0.5911849090783594,66,97.32098137454854
19,8.268268268268269,-0.5278064885983005,66,97.32098137454854
19,8.278278278278279,-0.4687727401354229,66,97.32098137454854
19,8.288288288288289,-0.3820420678456493,66,97.32098137454854
19,8.298298298298299,-0.3151625375247852,66,97.32098137454854
19,8.308308308308309,-0.2295922937856574,66,97.32098137454854
19,8.318318318318319,-0.1300599518402333,66,97.32098137454854
19,8.328328328328329,-0.0443334439070011,66,97.32098137454854
19,8.338338338338339,0.0363239283055079,66,97.32098137454854
19,8.348348348348349,0.1335055764365856,66,97.32098137454854
19,8.358358358358359,0.2284495362533684,66,97.32098137454854
19,8.368368368368369,0.3051749269548924,66,97.32098137454854
19,8.378378378378379,0.3907907209556459,66,97.32098137454854
19,8.388388388388389,0.4661730580507823,66,97.32098137454854
19,8.398398398398399,0.5215638736045941,66,97.32098137454854
19,8.408408408408409,0.5903979237338538,66,97.32098137454854
19,8.418418418418419,0.6500276461629573,66,97.32098137454854
19,8.428428428428429,0.6934323926613243,66,97.32098137454854
19,8.438438438438439,0.7301273376968747,66,97.32098137454854
19,8.448448448448449,0.7590801690628741,66,97.32098137454854
19,8.458458458458459,0.7707601140986592,66,97.32098137454854
19,8.468468468468469,0.7886457968953955,66,97.32098137454854
19,8.478478478478479,0.7715190937493305,66,97.32098137454854
19,8.488488488488489,0.7692074925117602,66,97.32098137454854
19,8.498498498498499,0.7575825782764035,66,97.32098137454854
19,8.508508508508509,0.7288114878543623,66,97.32098137454854
19,8.518518518518519,0.6988428887659802,66,97.32098137454854
19,8.528528528528529,0.6647280308805416,66,97.32098137454854
19,8.538538538538539,0.6133387411022573,66,97.32098137454854
19,8.548548548548549,0.5619331894392436,66,97.32098137454854
19,8.558558558558559,0.5218501291154195,66,97.32098137454854
19,8.568568568568569,0.4670843425539736,66,97.32098137454854
19,8.578578578578579,0.4218372615771387,66,97.32098137454854
19,8.588588588588589,0.366357151681855,66,97.32098137454854
19,8.598598598598599,0.3197566692844814,66,97.32098137454854
19,8.608608608608609,0.2768265446558319,66,97.32098137454854
19,8.618618618618619,0.2256779262284385,66,97.32098137454854
19,8.62862862862863,0.1870000237500177,66,97.32098137454854
19,8.63863863863864,0.1497836912027312,66,97.32098137454854
19,8.64864864864865,0.1171716075041545,66,97.32098137454854
19,8.65865865865866,0.0857417017770411,66,97.32098137454854
19,8.66866866866867,0.0636637508063421,66,97.32098137454854
19,8.67867867867868,0.0373139991199336,66,97.32098137454854
19,8.68868868868869,0.0312920428952102,66,97.32098137454854
19,8.6986986986987,0.0216676137369054,66,97.32098137454854
19,8.70870870870871,0.0130010563681259,66,97.32098137454854
19,8.71871871871872,-0.0010945733952959,66,97.32098137454854
19,8.72872872872873,0.0026289848615126,66,97.32098137454854
19,8.73873873873874,0.0101393807362502,66,97.32098137454854
19,8.74874874874875,0.0053902132480266,66,97.32098137454854
19,8.75875875875876,0.0075372935795006,66,97.32098137454854
19,8.76876876876877,-0.0046564768529393,66,97.32098137454854
19,8.77877877877878,-0.0098173110776545,66,97.32098137454854
19,8.78878878878879,-0.0006575965645402,66,97.32098137454854
19,8.7987987987988,-0.0051400297561762,66,97.32098137454854
19,8.80880880880881,-0.0218072140571489,66,97.32098137454854
19,8.81881881881882,-0.0343407212287444,66,97.32098137454854
19,8.82882882882883,-0.0507519292444632,66,97.32098137454854
19,8.83883883883884,-0.0784368027430397,66,97.32098137454854
19,8.84884884884885,-0.1134887266863107,66,97.32098137454854
19,8.85885885885886,-0.1364594779550214,66,97.32098137454854
19,8.86886886886887,-0.1706961635570738,66,97.32098137454854
19,8.87887887887888,-0.2162961510831106,66,97.32098137454854
19,8.88888888888889,-0.2650155258196287,66,97.32098137454854
19,8.8988988988989,-0.3022244083375825,66,97.32098137454854
19,8.90890890890891,-0.3572386857960998,66,97.32098137454854
19,8.91891891891892,-0.4072632976158997,66,97.32098137454854
19,8.92892892892893,-0.4632163912960106,66,97.32098137454854
19,8.93893893893894,-0.5025526098173485,66,97.32098137454854
19,8.94894894894895,-0.5604166428021123,66,97.32098137454854
19,8.95895895895896,-0.6095882463034374,66,97.32098137454854
19,8.96896896896897,-0.6430363929448906,66,97.32098137454854
19,8.97897897897898,-0.6837699243371801,66,97.32098137454854
19,8.98898898898899,-0.71655839323437,66,97.32098137454854
19,8.998998998999,-0.7464745611162098,66,97.32098137454854
19,9.00900900900901,-0.7588415449153827,66,97.32098137454854
19,9.01901901901902,-0.7833048064663399,66,97.32098137454854
19,9.02902902902903,-0.7833176761293611,66,97.32098137454854
19,9.03903903903904,-0.767054615075334,66,97.32098137454854
19,9.04904904904905,-0.7557517862822655,66,97.32098137454854
19,9.05905905905906,-0.7340812017872524,66,97.32098137454854
19,9.06906906906907,-0.7069726483507007,66,97.32098137454854
19,9.07907907907908,-0.6548290831744827,66,97.32098137454854
19,9.08908908908909,-0.617692951372557,66,97.32098137454854
19,9.0990990990991,-0.5434409077803409,66,97.32098137454854
19,9.10910910910911,-0.4793073507372956,66,97.32098137454854
19,9.11911911911912,-0.4127560851357266,66,97.32098137454854
19,9.12912912912913,-0.3344147794649465,66,97.32098137454854
19,9.13913913913914,-0.2397514696957146,66,97.32098137454854
19,9.14914914914915,-0.1572396698451971,66,97.32098137454854
19,9.15915915915916,-0.0810861053289336,66,97.32098137454854
19,9.16916916916917,0.0219127063567507,66,97.32098137454854
19,9.17917917917918,0.1163593523476674,66,97.32098137454854
19,9.18918918918919,0.2011814762807421,66,97.32098137454854
19,9.1991991991992,0.2843369636965099,66,97.32098137454854
19,9.20920920920921,0.3746986998790795,66,97.32098137454854
19,9.21921921921922,0.4402761576531672,66,97.32098137454854
19,9.22922922922923,0.5102057939282093,66,97.32098137454854
19,9.23923923923924,0.5740069155610502,66,97.32098137454854
19,9.24924924924925,0.6287624708020969,66,97.32098137454854
19,9.25925925925926,0.6750328755986938,66,97.32098137454854
19,9.26926926926927,0.7165137881159171,66,97.32098137454854
19,9.27927927927928,0.7499586632776839,66,97.32098137454854
19,9.28928928928929,0.765506307088128,66,97.32098137454854
19,9.2992992992993,0.7848653493077865,66,97.32098137454854
19,9.30930930930931,0.7738286233885209,66,97.32098137454854
19,9.31931931931932,0.7742524290424503,66,97.32098137454854
19,9.32932932932933,0.7558410800355733,66,97.32098137454854
19,9.33933933933934,0.7271724055507246,66,97.32098137454854
19,9.34934934934935,0.6915711066862291,66,97.32098137454854
19,9.35935935935936,0.6589782443884128,66,97.32098137454854
19,9.36936936936937,0.6291670857011544,66,97.32098137454854
19,9.37937937937938,0.5790883688413134,66,97.32098137454854
19,9.38938938938939,0.5259810452884234,66,97.32098137454854
19,9.3993993993994,0.4795772894300218,66,97.32098137454854
19,9.40940940940941,0.436257532002054,66,97.32098137454854
19,9.41941941941942,0.3855143340536392,66,97.32098137454854
19,9.42942942942943,0.3267706818865636,66,97.32098137454854
19,9.43943943943944,0.2880398888326209,66,97.32098137454854
19,9.44944944944945,0.2389930744822114,66,97.32098137454854
19,9.45945945945946,0.1961848725588505,66,97.32098137454854
19,9.46946946946947,0.1477563220903189,66,97.32098137454854
19,9.47947947947948,0.1197534921932069,66,97.32098137454854
19,9.48948948948949,0.0896260423696827,66,97.32098137454854
19,9.4994994994995,0.0721948241057034,66,97.32098137454854
19,9.50950950950951,0.0514938275724606,66,97.32098137454854
19,9.51951951951952,0.0340965793106754,66,97.32098137454854
19,9.52952952952953,0.0153390068693827,66,97.32098137454854
19,9.53953953953954,0.0098577801620896,66,97.32098137454854
19,9.54954954954955,0.007029050330878,66,97.32098137454854
19,9.55955955955956,0.0022116276322325,66,97.32098137454854
19,9.56956956956957,0.0013899064057386,66,97.32098137454854
19,9.57957957957958,-0.0026320241066698,66,97.32098137454854
19,9.58958958958959,-0.0006513807955997,66,97.32098137454854
19,9.5995995995996,-0.0038774129761871,66,97.32098137454854
19,9.60960960960961,-0.0101492597530564,66,97.32098137454854
19,9.61961961961962,-0.0081066366118383,66,97.32098137454854
19,9.62962962962963,-0.0086181962079905,66,97.32098137454854
19,9.63963963963964,-0.0274720274952744,66,97.32098137454854
19,9.64964964964965,-0.0508240315103819,66,97.32098137454854
19,9.65965965965966,-0.0546985257930144,66,97.32098137454854
19,9.66966966966967,-0.0824034200837068,66,97.32098137454854
19,9.67967967967968,-0.1058217353514029,66,97.32098137454854
19,9.68968968968969,-0.1299279141733016,66,97.32098137454854
19,9.6996996996997,-0.1726692596986918,66,97.32098137454854
19,9.70970970970971,-0.2017924883348382,66,97.32098137454854
19,9.71971971971972,-0.2465685953163256,66,97.32098137454854
19,9.72972972972973,-0.2871878039191781,66,97.32098137454854
19,9.73973973973974,-0.3413844156252629,66,97.32098137454854
19,9.74974974974975,-0.3941983832905713,66,97.32098137454854
19,9.75975975975976,-0.4397481105568572,66,97.32098137454854
19,9.76976976976977,-0.5018064510996398,66,97.32098137454854
19,9.77977977977978,-0.5450827304893993,66,97.32098137454854
19,9.78978978978979,-0.5937311104827097,66,97.32098137454854
19,9.7997997997998,-0.6438074505862023,66,97.32098137454854
19,9.80980980980981,-0.6695744026643272,66,97.32098137454854
19,9.81981981981982,-0.7073854617917805,66,97.32098137454854
19,9.82982982982983,-0.7413097372396226,66,97.32098137454854
19,9.83983983983984,-0.7605206507689956,66,97.32098137454854
19,9.84984984984985,-0.7763392832035383,66,97.32098137454854
19,9.85985985985986,-0.777536396580674,66,97.32098137454854
19,9.86986986986987,-0.7697440342394263,66,97.32098137454854
19,9.87987987987988,-0.7727239104804301,66,97.32098137454854
19,9.88988988988989,-0.7370022113034521,66,97.32098137454854
19,9.8998998998999,-0.7113722751897982,66,97.32098137454854
19,9.90990990990991,-0.673044762772177,66,97.32098137454854
19,9.91991991991992,-0.6119873801549505,66,97.32098137454854
19,9.92992992992993,-0.5615751575430616,66,97.32098137454854
19,9.93993993993994,-0.5016976667778946,66,97.32098137454854
19,9.94994994994995,-0.4263906463734984,66,97.32098137454854
19,9.95995995995996,-0.3520668965469488,66,97.32098137454854
19,9.96996996996997,-0.2671433744122303,66,97.32098137454854
19,9.97997997997998,-0.1687433328207427,66,97.32098137454854
19,9.98998998998999,-0.0827494954579912,66,97.32098137454854
19,10.0,-0.0012579931231907,66,97.32098137454854
