Subject_ID,Time,PPG,HR,HRV
3,0.0,-0.0019636062165796,65,87.45502851974747
3,0.01001001001001,0.0886881761614118,65,87.45502851974747
3,0.02002002002002,0.1807035822465129,65,87.45502851974747
3,0.03003003003003,0.269242334396974,65,87.45502851974747
3,0.04004004004004,0.3611336409316237,65,87.45502851974747
3,0.05005005005005,0.4271002782996719,65,87.45502851974747
3,0.06006006006006,0.4962436235155357,65,87.45502851974747
3,0.07007007007007,0.5614592652473279,65,87.45502851974747
3,0.08008008008008,0.6326195396628077,65,87.45502851974747
3,0.09009009009009,0.660377315799547,65,87.45502851974747
3,0.1001001001001,0.7108071647211605,65,87.45502851974747
3,0.1101101101101101,0.7324216450504296,65,87.45502851974747
3,0.1201201201201201,0.7560729410287557,65,87.45502851974747
3,0.1301301301301301,0.7761508820339577,65,87.45502851974747
3,0.1401401401401401,0.7828492572994276,65,87.45502851974747
3,0.1501501501501501,0.7705333123432004,65,87.45502851974747
3,0.1601601601601601,0.7655180606295968,65,87.45502851974747
3,0.1701701701701701,0.733122213827277,65,87.45502851974747
3,0.1801801801801801,0.7034893058696253,65,87.45502851974747
3,0.1901901901901901,0.6774499847098996,65,87.45502851974747
3,0.2002002002002001,0.6442830665160102,65,87.45502851974747
3,0.2102102102102102,0.598659942472597,65,87.45502851974747
3,0.2202202202202202,0.5447844887653212,65,87.45502851974747
3,0.2302302302302302,0.491071541582505,65,87.45502851974747
3,0.2402402402402402,0.4474536972635988,65,87.45502851974747
3,0.2502502502502503,0.3858777665807518,65,87.45502851974747
3,0.2602602602602603,0.3411768982994304,65,87.45502851974747
3,0.2702702702702703,0.2932030444102216,65,87.45502851974747
3,0.2802802802802803,0.241234230029234,65,87.45502851974747
3,0.2902902902902903,0.2094157377115836,65,87.45502851974747
3,0.3003003003003003,0.1632302338809108,65,87.45502851974747
3,0.3103103103103103,0.1321178224643223,65,87.45502851974747
3,0.3203203203203203,0.1068326862408058,65,87.45502851974747
3,0.3303303303303303,0.065110300333162,65,87.45502851974747
3,0.3403403403403403,0.0496449627134273,65,87.45502851974747
3,0.3503503503503503,0.0338022164525511,65,87.45502851974747
3,0.3603603603603603,0.0234459897363063,65,87.45502851974747
3,0.3703703703703703,0.0003457010187252,65,87.45502851974747
3,0.3803803803803803,0.0104438260160428,65,87.45502851974747
3,0.3903903903903903,0.0011847720185407,65,87.45502851974747
3,0.4004004004004003,-0.0030779807050423,65,87.45502851974747
3,0.4104104104104104,-0.0043698749311182,65,87.45502851974747
3,0.4204204204204204,-0.0077950331112368,65,87.45502851974747
3,0.4304304304304304,-0.0069404276881523,65,87.45502851974747
3,0.4404404404404404,0.0013489414697501,65,87.45502851974747
3,0.4504504504504504,0.0040816090341504,65,87.45502851974747
3,0.4604604604604604,-0.0070541261078134,65,87.45502851974747
3,0.4704704704704704,-0.0190899861255271,65,87.45502851974747
3,0.4804804804804805,-0.0311007065118126,65,87.45502851974747
3,0.4904904904904905,-0.0526965749805233,65,87.45502851974747
3,0.5005005005005005,-0.0692655705079091,65,87.45502851974747
3,0.5105105105105106,-0.0893695665290397,65,87.45502851974747
3,0.5205205205205206,-0.1237036038472105,65,87.45502851974747
3,0.5305305305305306,-0.1528914346275384,65,87.45502851974747
3,0.5405405405405406,-0.1870797249439657,65,87.45502851974747
3,0.5505505505505506,-0.2403154020561013,65,87.45502851974747
3,0.5605605605605606,-0.2815610728852235,65,87.45502851974747
3,0.5705705705705706,-0.3342875558440735,65,87.45502851974747
3,0.5805805805805806,-0.3828036322784451,65,87.45502851974747
3,0.5905905905905906,-0.4318961299045566,65,87.45502851974747
3,0.6006006006006006,-0.4811992328140239,65,87.45502851974747
3,0.6106106106106106,-0.5308018262251709,65,87.45502851974747
3,0.6206206206206206,-0.5793475334443079,65,87.45502851974747
3,0.6306306306306306,-0.6183692784383226,65,87.45502851974747
3,0.6406406406406406,-0.6647284950586474,65,87.45502851974747
3,0.6506506506506506,-0.6978265874318647,65,87.45502851974747
3,0.6606606606606606,-0.7333867484573264,65,87.45502851974747
3,0.6706706706706707,-0.7588472863063153,65,87.45502851974747
3,0.6806806806806807,-0.7741885896390743,65,87.45502851974747
3,0.6906906906906907,-0.7841371843731664,65,87.45502851974747
3,0.7007007007007007,-0.7715650606158068,65,87.45502851974747
3,0.7107107107107107,-0.7679940672553704,65,87.45502851974747
3,0.7207207207207207,-0.755995695059816,65,87.45502851974747
3,0.7307307307307307,-0.7235120307144098,65,87.45502851974747
3,0.7407407407407407,-0.6887227128058321,65,87.45502851974747
3,0.7507507507507507,-0.6307922550292047,65,87.45502851974747
3,0.7607607607607607,-0.5780720142284277,65,87.45502851974747
3,0.7707707707707707,-0.5227451194960283,65,87.45502851974747
3,0.7807807807807807,-0.4500448581161325,65,87.45502851974747
3,0.7907907907907907,-0.3691693370034405,65,87.45502851974747
3,0.8008008008008007,-0.2877089990435648,65,87.45502851974747
3,0.8108108108108109,-0.2100209973487701,65,87.45502851974747
3,0.8208208208208209,-0.1135914310849292,65,87.45502851974747
3,0.8308308308308309,-0.0176717707026128,65,87.45502851974747
3,0.8408408408408409,0.0667786380240657,65,87.45502851974747
3,0.8508508508508509,0.159595173721034,65,87.45502851974747
3,0.8608608608608609,0.235038741581807,65,87.45502851974747
3,0.8708708708708709,0.3188551870143065,65,87.45502851974747
3,0.8808808808808809,0.4092672577992952,65,87.45502851974747
3,0.8908908908908909,0.4886302724418713,65,87.45502851974747
3,0.9009009009009008,0.5462110696418687,65,87.45502851974747
3,0.9109109109109108,0.6058423714942519,65,87.45502851974747
3,0.9209209209209208,0.6621120698779033,65,87.45502851974747
3,0.9309309309309308,0.6974991073700433,65,87.45502851974747
3,0.9409409409409408,0.7300202103985962,65,87.45502851974747
3,0.950950950950951,0.7717571748290653,65,87.45502851974747
3,0.960960960960961,0.7684899573793028,65,87.45502851974747
3,0.970970970970971,0.7822527389000169,65,87.45502851974747
3,0.980980980980981,0.7720774352834057,65,87.45502851974747
3,0.990990990990991,0.7642963558345088,65,87.45502851974747
3,1.001001001001001,0.7412311717288562,65,87.45502851974747
3,1.011011011011011,0.724593119923115,65,87.45502851974747
3,1.021021021021021,0.6858335965519204,65,87.45502851974747
3,1.031031031031031,0.6520970102178916,65,87.45502851974747
3,1.0410410410410411,0.6017030022445545,65,87.45502851974747
3,1.0510510510510511,0.5520314704776663,65,87.45502851974747
3,1.0610610610610611,0.516582414785716,65,87.45502851974747
3,1.0710710710710711,0.4658858498444008,65,87.45502851974747
3,1.0810810810810811,0.4034803224209783,65,87.45502851974747
3,1.0910910910910911,0.3654101352232929,65,87.45502851974747
3,1.1011011011011012,0.3058844050788896,65,87.45502851974747
3,1.1111111111111112,0.2657626519765245,65,87.45502851974747
3,1.1211211211211212,0.2177995070097713,65,87.45502851974747
3,1.1311311311311312,0.1629518953131557,65,87.45502851974747
3,1.1411411411411412,0.1410069558895821,65,87.45502851974747
3,1.1511511511511512,0.1053493955600765,65,87.45502851974747
3,1.1611611611611612,0.0799043729087489,65,87.45502851974747
3,1.1711711711711712,0.0625521970317193,65,87.45502851974747
3,1.1811811811811812,0.0389872421784745,65,87.45502851974747
3,1.1911911911911912,0.0249254623746226,65,87.45502851974747
3,1.2012012012012012,0.0278934550637095,65,87.45502851974747
3,1.2112112112112112,0.0130646117529459,65,87.45502851974747
3,1.2212212212212212,0.0108844371654143,65,87.45502851974747
3,1.2312312312312312,0.0040503130337863,65,87.45502851974747
3,1.2412412412412412,-0.0030575991062562,65,87.45502851974747
3,1.2512512512512513,0.0002001604252642,65,87.45502851974747
3,1.2612612612612613,-0.0010444547412369,65,87.45502851974747
3,1.2712712712712713,0.004520424042731,65,87.45502851974747
3,1.2812812812812813,-0.0017824262947945,65,87.45502851974747
3,1.2912912912912913,-0.0073685902993568,65,87.45502851974747
3,1.3013013013013013,-0.0192973972374872,65,87.45502851974747
3,1.3113113113113113,-0.0290656320368025,65,87.45502851974747
3,1.3213213213213213,-0.0418272086552067,65,87.45502851974747
3,1.3313313313313313,-0.071121381202595,65,87.45502851974747
3,1.3413413413413413,-0.0921476464839357,65,87.45502851974747
3,1.351351351351351,-0.108903240669595,65,87.45502851974747
3,1.361361361361361,-0.1539042347235099,65,87.45502851974747
3,1.371371371371371,-0.1934937224693526,65,87.45502851974747
3,1.3813813813813811,-0.2191054657349242,65,87.45502851974747
3,1.3913913913913911,-0.2698309845891281,65,87.45502851974747
3,1.4014014014014011,-0.3212563668237435,65,87.45502851974747
3,1.4114114114114114,-0.370740374037691,65,87.45502851974747
3,1.4214214214214214,-0.4213707026760941,65,87.45502851974747
3,1.4314314314314314,-0.4684778096023727,65,87.45502851974747
3,1.4414414414414414,-0.5205412466681193,65,87.45502851974747
3,1.4514514514514514,-0.5644193562988233,65,87.45502851974747
3,1.4614614614614614,-0.6184484655508362,65,87.45502851974747
3,1.4714714714714714,-0.6583884781621722,65,87.45502851974747
3,1.4814814814814814,-0.6822184213412098,65,87.45502851974747
3,1.4914914914914914,-0.7303169196012527,65,87.45502851974747
3,1.5015015015015014,-0.7553481596751631,65,87.45502851974747
3,1.5115115115115114,-0.7631585197472868,65,87.45502851974747
3,1.5215215215215214,-0.7749337137860527,65,87.45502851974747
3,1.5315315315315314,-0.7707236809029837,65,87.45502851974747
3,1.5415415415415414,-0.7748901499417675,65,87.45502851974747
3,1.5515515515515514,-0.74996138615272,65,87.45502851974747
3,1.5615615615615617,-0.7273823464824413,65,87.45502851974747
3,1.5715715715715717,-0.7031313031389878,65,87.45502851974747
3,1.5815815815815817,-0.6526060351059436,65,87.45502851974747
3,1.5915915915915917,-0.6035099844933346,65,87.45502851974747
3,1.6016016016016017,-0.5360257893050095,65,87.45502851974747
3,1.6116116116116117,-0.4560524797636686,65,87.45502851974747
3,1.6216216216216215,-0.3929158670808347,65,87.45502851974747
3,1.6316316316316315,-0.3067809985391894,65,87.45502851974747
3,1.6416416416416415,-0.2190767440318505,65,87.45502851974747
3,1.6516516516516515,-0.1377699299238265,65,87.45502851974747
3,1.6616616616616615,-0.0381033642106431,65,87.45502851974747
3,1.6716716716716715,0.039270414965138,65,87.45502851974747
3,1.6816816816816818,0.1384141912835466,65,87.45502851974747
3,1.6916916916916918,0.228937589425743,65,87.45502851974747
3,1.7017017017017018,0.299187140550686,65,87.45502851974747
3,1.7117117117117118,0.3901258951334442,65,87.45502851974747
3,1.7217217217217218,0.4607179006481898,65,87.45502851974747
3,1.7317317317317318,0.5269600499881301,65,87.45502851974747
3,1.7417417417417418,0.5921935050747524,65,87.45502851974747
3,1.7517517517517518,0.6474592386870301,65,87.45502851974747
3,1.7617617617617618,0.6912736813790964,65,87.45502851974747
3,1.7717717717717718,0.7216325830755783,65,87.45502851974747
3,1.7817817817817818,0.7505229920817932,65,87.45502851974747
3,1.7917917917917918,0.7688307341667197,65,87.45502851974747
3,1.8018018018018016,0.7739986234830473,65,87.45502851974747
3,1.811811811811812,0.7761753991330399,65,87.45502851974747
3,1.8218218218218216,0.7686337531546644,65,87.45502851974747
3,1.831831831831832,0.7525250968953138,65,87.45502851974747
3,1.8418418418418416,0.7335832241247022,65,87.45502851974747
3,1.851851851851852,0.6982275192306034,65,87.45502851974747
3,1.8618618618618616,0.6610455800096773,65,87.45502851974747
3,1.871871871871872,0.6080259919440274,65,87.45502851974747
3,1.8818818818818817,0.5730300873842403,65,87.45502851974747
3,1.891891891891892,0.5232525459137507,65,87.45502851974747
3,1.901901901901902,0.4740432382846309,65,87.45502851974747
3,1.911911911911912,0.4101123910654257,65,87.45502851974747
3,1.921921921921922,0.3660685101108965,65,87.45502851974747
3,1.931931931931932,0.3252469165393892,65,87.45502851974747
3,1.941941941941942,0.2729869615837692,65,87.45502851974747
3,1.951951951951952,0.2279224644514703,65,87.45502851974747
3,1.961961961961962,0.1846783131981731,65,87.45502851974747
3,1.971971971971972,0.1373303663122934,65,87.45502851974747
3,1.981981981981982,0.1070243771119296,65,87.45502851974747
3,1.991991991991992,0.0798242572666812,65,87.45502851974747
3,2.002002002002002,0.0667473288293247,65,87.45502851974747
3,2.012012012012012,0.0444547864812354,65,87.45502851974747
3,2.022022022022022,0.0334792303236865,65,87.45502851974747
3,2.032032032032032,0.0204868172538956,65,87.45502851974747
3,2.042042042042042,0.0026586978791538,65,87.45502851974747
3,2.052052052052052,-0.000272103585495,65,87.45502851974747
3,2.062062062062062,0.0008685033951201,65,87.45502851974747
3,2.072072072072072,0.0038462750366342,65,87.45502851974747
3,2.0820820820820822,-0.0009892340524867,65,87.45502851974747
3,2.092092092092092,0.0002839213483411,65,87.45502851974747
3,2.1021021021021022,-0.0058117190637137,65,87.45502851974747
3,2.112112112112112,-0.0098118818789051,65,87.45502851974747
3,2.1221221221221223,0.0024098906344991,65,87.45502851974747
3,2.1321321321321323,-0.0199253537640396,65,87.45502851974747
3,2.1421421421421423,-0.0264543630921908,65,87.45502851974747
3,2.1521521521521523,-0.0449588477599028,65,87.45502851974747
3,2.1621621621621623,-0.0670380604454398,65,87.45502851974747
3,2.1721721721721723,-0.0775650241449423,65,87.45502851974747
3,2.1821821821821823,-0.0972329044231656,65,87.45502851974747
3,2.1921921921921923,-0.1302226124606576,65,87.45502851974747
3,2.2022022022022023,-0.1713711027954812,65,87.45502851974747
3,2.2122122122122123,-0.2205021823439202,65,87.45502851974747
3,2.2222222222222223,-0.2643529372415527,65,87.45502851974747
3,2.2322322322322323,-0.3089224693258883,65,87.45502851974747
3,2.2422422422422423,-0.3526602188671636,65,87.45502851974747
3,2.2522522522522523,-0.403026169454797,65,87.45502851974747
3,2.2622622622622623,-0.4570107014790718,65,87.45502851974747
3,2.2722722722722724,-0.5102540778699981,65,87.45502851974747
3,2.2822822822822824,-0.5536954815131447,65,87.45502851974747
3,2.2922922922922924,-0.61008405951985,65,87.45502851974747
3,2.3023023023023024,-0.6384105912097794,65,87.45502851974747
3,2.3123123123123124,-0.6798222766968472,65,87.45502851974747
3,2.3223223223223224,-0.7207446568651061,65,87.45502851974747
3,2.3323323323323324,-0.7443485432982779,65,87.45502851974747
3,2.3423423423423424,-0.7542388029410163,65,87.45502851974747
3,2.3523523523523524,-0.7667052070846992,65,87.45502851974747
3,2.3623623623623624,-0.7844737658975951,65,87.45502851974747
3,2.3723723723723724,-0.7743626209257612,65,87.45502851974747
3,2.3823823823823824,-0.7585236402264194,65,87.45502851974747
3,2.3923923923923924,-0.741487288052014,65,87.45502851974747
3,2.4024024024024024,-0.7075911058539389,65,87.45502851974747
3,2.4124124124124124,-0.664643346293626,65,87.45502851974747
3,2.4224224224224224,-0.605062328980645,65,87.45502851974747
3,2.4324324324324325,-0.5498886388342804,65,87.45502851974747
3,2.4424424424424425,-0.4764081041487263,65,87.45502851974747
3,2.4524524524524525,-0.4163238317856642,65,87.45502851974747
3,2.4624624624624625,-0.3204808538380826,65,87.45502851974747
3,2.4724724724724725,-0.2438821755012782,65,87.45502851974747
3,2.4824824824824825,-0.1527048145493426,65,87.45502851974747
3,2.4924924924924925,-0.0694793752839107,65,87.45502851974747
3,2.5025025025025025,0.0270258862324227,65,87.45502851974747
3,2.5125125125125125,0.1118268309895967,65,87.45502851974747
3,2.5225225225225225,0.2057099683965638,65,87.45502851974747
3,2.5325325325325325,0.2831754337015648,65,87.45502851974747
3,2.5425425425425425,0.374087254058035,65,87.45502851974747
3,2.5525525525525525,0.4428171658418189,65,87.45502851974747
3,2.5625625625625625,0.5167156006689748,65,87.45502851974747
3,2.5725725725725725,0.5733707104341518,65,87.45502851974747
3,2.5825825825825826,0.632071751200828,65,87.45502851974747
3,2.592592592592593,0.6761714894670114,65,87.45502851974747
3,2.6026026026026026,0.720373483760912,65,87.45502851974747
3,2.612612612612613,0.7494222136229698,65,87.45502851974747
3,2.6226226226226226,0.7780105590766796,65,87.45502851974747
3,2.6326326326326326,0.7749298126376463,65,87.45502851974747
3,2.6426426426426426,0.7775390882159516,65,87.45502851974747
3,2.6526526526526526,0.7800022067468451,65,87.45502851974747
3,2.6626626626626626,0.7610651893028778,65,87.45502851974747
3,2.6726726726726726,0.7377428154756875,65,87.45502851974747
3,2.6826826826826826,0.6923506584182649,65,87.45502851974747
3,2.6926926926926926,0.6674072216216006,65,87.45502851974747
3,2.702702702702702,0.6255603522801784,65,87.45502851974747
3,2.7127127127127126,0.5808580628726709,65,87.45502851974747
3,2.722722722722722,0.5383292083083742,65,87.45502851974747
3,2.7327327327327327,0.4888679784141603,65,87.45502851974747
3,2.7427427427427427,0.4205618256621306,65,87.45502851974747
3,2.7527527527527527,0.3775360777194552,65,87.45502851974747
3,2.7627627627627627,0.3273721206724073,65,87.45502851974747
3,2.7727727727727727,0.2755256845630242,65,87.45502851974747
3,2.7827827827827827,0.2406021606885824,65,87.45502851974747
3,2.7927927927927927,0.1961498665030964,65,87.45502851974747
3,2.8028028028028027,0.1493944746712432,65,87.45502851974747
3,2.8128128128128127,0.1197404465080931,65,87.45502851974747
3,2.8228228228228227,0.1018636625202235,65,87.45502851974747
3,2.8328328328328327,0.0613463690551547,65,87.45502851974747
3,2.8428428428428427,0.0493486216951134,65,87.45502851974747
3,2.8528528528528527,0.0278217603541996,65,87.45502851974747
3,2.8628628628628627,0.0173306138905205,65,87.45502851974747
3,2.8728728728728727,0.0097849628670393,65,87.45502851974747
3,2.8828828828828827,0.0041448083809675,65,87.45502851974747
3,2.8928928928928928,-0.0010436528037107,65,87.45502851974747
3,2.9029029029029028,-0.0088208244027792,65,87.45502851974747
3,2.9129129129129128,0.0008762041146375,65,87.45502851974747
3,2.9229229229229228,0.0114632461894953,65,87.45502851974747
3,2.932932932932933,-0.0029348685391468,65,87.45502851974747
3,2.942942942942943,-0.0094126478467952,65,87.45502851974747
3,2.952952952952953,-0.0068305862897196,65,87.45502851974747
3,2.962962962962963,-0.0076540798579304,65,87.45502851974747
3,2.972972972972973,-0.0125101688767463,65,87.45502851974747
3,2.982982982982983,-0.0374823858867751,65,87.45502851974747
3,2.992992992992993,-0.0512319248722022,65,87.45502851974747
3,3.003003003003003,-0.0805124068483844,65,87.45502851974747
3,3.013013013013013,-0.0948798378088438,65,87.45502851974747
3,3.023023023023023,-0.1316075983654011,65,87.45502851974747
3,3.033033033033033,-0.1707505927247275,65,87.45502851974747
3,3.043043043043043,-0.2019801632357356,65,87.45502851974747
3,3.053053053053053,-0.2564825034537273,65,87.45502851974747
3,3.063063063063063,-0.2988684266369559,65,87.45502851974747
3,3.073073073073073,-0.3357472955515531,65,87.45502851974747
3,3.083083083083083,-0.3944767680538272,65,87.45502851974747
3,3.093093093093093,-0.4367309114340836,65,87.45502851974747
3,3.103103103103103,-0.5013278200771878,65,87.45502851974747
3,3.113113113113113,-0.5429798074372426,65,87.45502851974747
3,3.123123123123123,-0.5898526607170201,65,87.45502851974747
3,3.133133133133133,-0.6387793320503578,65,87.45502851974747
3,3.143143143143143,-0.6719296321313758,65,87.45502851974747
3,3.153153153153153,-0.7110142187794852,65,87.45502851974747
3,3.163163163163163,-0.7401900040655089,65,87.45502851974747
3,3.173173173173173,-0.7491111508526277,65,87.45502851974747
3,3.183183183183183,-0.7721731579381539,65,87.45502851974747
3,3.193193193193193,-0.7839933469732124,65,87.45502851974747
3,3.203203203203203,-0.773992744170528,65,87.45502851974747
3,3.2132132132132134,-0.763665633326316,65,87.45502851974747
3,3.2232232232232234,-0.7381254233767623,65,87.45502851974747
3,3.2332332332332334,-0.7182288387484154,65,87.45502851974747
3,3.2432432432432434,-0.671046392734968,65,87.45502851974747
3,3.253253253253253,-0.6204523793791532,65,87.45502851974747
3,3.2632632632632634,-0.5553636993873287,65,87.45502851974747
3,3.273273273273273,-0.4894932625531532,65,87.45502851974747
3,3.2832832832832834,-0.4308878143291304,65,87.45502851974747
3,3.293293293293293,-0.3518996531651128,65,87.45502851974747
3,3.3033033033033035,-0.2647412811268021,65,87.45502851974747
3,3.313313313313313,-0.1808807073505179,65,87.45502851974747
3,3.3233233233233235,-0.0939327961635695,65,87.45502851974747
3,3.333333333333333,0.0034976535736687,65,87.45502851974747
3,3.3433433433433435,0.0886624477035122,65,87.45502851974747
3,3.353353353353353,0.1816699950836127,65,87.45502851974747
3,3.3633633633633635,0.2683220645738297,65,87.45502851974747
3,3.373373373373373,0.3523320882951391,65,87.45502851974747
3,3.3833833833833835,0.4219729093013144,65,87.45502851974747
3,3.393393393393393,0.4950908516698175,65,87.45502851974747
3,3.4034034034034035,0.5644306212794493,65,87.45502851974747
3,3.413413413413413,0.6213172194002891,65,87.45502851974747
3,3.4234234234234235,0.6666511278627509,65,87.45502851974747
3,3.433433433433433,0.7066930144942538,65,87.45502851974747
3,3.443443443443444,0.7398014542476335,65,87.45502851974747
3,3.4534534534534536,0.7584707852143523,65,87.45502851974747
3,3.463463463463464,0.7713451494949246,65,87.45502851974747
3,3.4734734734734736,0.7832274624238312,65,87.45502851974747
3,3.483483483483484,0.7769419024618058,65,87.45502851974747
3,3.4934934934934936,0.7585948410755822,65,87.45502851974747
3,3.503503503503504,0.7369735944095521,65,87.45502851974747
3,3.5135135135135136,0.701243770648834,65,87.45502851974747
3,3.523523523523524,0.673246362215982,65,87.45502851974747
3,3.5335335335335336,0.6409922596592514,65,87.45502851974747
3,3.543543543543544,0.5889813153021275,65,87.45502851974747
3,3.5535535535535536,0.5421830219353388,65,87.45502851974747
3,3.563563563563564,0.4966501927947515,65,87.45502851974747
3,3.5735735735735736,0.4485238151835238,65,87.45502851974747
3,3.583583583583584,0.4025461649578113,65,87.45502851974747
3,3.5935935935935936,0.3397842057495637,65,87.45502851974747
3,3.603603603603604,0.2914831856167438,65,87.45502851974747
3,3.6136136136136137,0.2435911950742023,65,87.45502851974747
3,3.623623623623624,0.204935794028737,65,87.45502851974747
3,3.6336336336336337,0.1732108173259696,65,87.45502851974747
3,3.643643643643644,0.1336826768726313,65,87.45502851974747
3,3.6536536536536537,0.0925422202565909,65,87.45502851974747
3,3.663663663663664,0.073858276413217,65,87.45502851974747
3,3.6736736736736737,0.0525179871915384,65,87.45502851974747
3,3.683683683683684,0.0355255619448078,65,87.45502851974747
3,3.6936936936936937,0.021805787114913,65,87.45502851974747
3,3.703703703703704,0.0186397711157537,65,87.45502851974747
3,3.7137137137137137,0.0134168967169876,65,87.45502851974747
3,3.723723723723724,0.0042676328623996,65,87.45502851974747
3,3.7337337337337337,0.0014578910111669,65,87.45502851974747
3,3.743743743743744,0.0057674559976445,65,87.45502851974747
3,3.7537537537537538,0.0069201541616247,65,87.45502851974747
3,3.763763763763764,-0.0029704635494952,65,87.45502851974747
3,3.7737737737737738,-0.0105161608619657,65,87.45502851974747
3,3.783783783783784,-0.0012620911176905,65,87.45502851974747
3,3.793793793793794,-0.0143319580248888,65,87.45502851974747
3,3.803803803803804,-0.0229752660296586,65,87.45502851974747
3,3.813813813813814,-0.0316033414112439,65,87.45502851974747
3,3.823823823823824,-0.0497042527323839,65,87.45502851974747
3,3.833833833833834,-0.0695450105163433,65,87.45502851974747
3,3.843843843843844,-0.0994812275365658,65,87.45502851974747
3,3.853853853853854,-0.1184754840532253,65,87.45502851974747
3,3.863863863863864,-0.1528804865016217,65,87.45502851974747
3,3.873873873873874,-0.1991723650815047,65,87.45502851974747
3,3.883883883883884,-0.2392038667342706,65,87.45502851974747
3,3.893893893893894,-0.2789494927625136,65,87.45502851974747
3,3.903903903903904,-0.3286348620865186,65,87.45502851974747
3,3.913913913913914,-0.3933014312051311,65,87.45502851974747
3,3.923923923923924,-0.4304807381783206,65,87.45502851974747
3,3.933933933933934,-0.4851802331854756,65,87.45502851974747
3,3.943943943943944,-0.5281439965649577,65,87.45502851974747
3,3.953953953953954,-0.5777740650906418,65,87.45502851974747
3,3.963963963963964,-0.6274550137415688,65,87.45502851974747
3,3.973973973973974,-0.6620009407525359,65,87.45502851974747
3,3.983983983983984,-0.6968740396850577,65,87.45502851974747
3,3.993993993993994,-0.7240940798050792,65,87.45502851974747
3,4.004004004004004,-0.7520236117989046,65,87.45502851974747
3,4.014014014014014,-0.7777667517144463,65,87.45502851974747
3,4.024024024024024,-0.7804225706698205,65,87.45502851974747
3,4.034034034034034,-0.7785262050249097,65,87.45502851974747
3,4.044044044044044,-0.7566955320312521,65,87.45502851974747
3,4.054054054054054,-0.7504769394479905,65,87.45502851974747
3,4.064064064064064,-0.7236284137329798,65,87.45502851974747
3,4.074074074074074,-0.6780192430369136,65,87.45502851974747
3,4.084084084084084,-0.6341471012308265,65,87.45502851974747
3,4.094094094094094,-0.5776021394878086,65,87.45502851974747
3,4.104104104104104,-0.5204977737706203,65,87.45502851974747
3,4.114114114114114,-0.4481616575058334,65,87.45502851974747
3,4.124124124124124,-0.3719996089257008,65,87.45502851974747
3,4.134134134134134,-0.2898454201642467,65,87.45502851974747
3,4.144144144144144,-0.193325349596957,65,87.45502851974747
3,4.1541541541541545,-0.116827991812127,65,87.45502851974747
3,4.1641641641641645,-0.0242107366689716,65,87.45502851974747
3,4.174174174174175,0.0584252403707293,65,87.45502851974747
3,4.1841841841841845,0.1556732055145007,65,87.45502851974747
3,4.1941941941941945,0.2521782158362144,65,87.45502851974747
3,4.2042042042042045,0.3275725085712223,65,87.45502851974747
3,4.214214214214215,0.4016400038583437,65,87.45502851974747
3,4.2242242242242245,0.4793695461199523,65,87.45502851974747
3,4.2342342342342345,0.5502378191862005,65,87.45502851974747
3,4.2442442442442445,0.6098007998213044,65,87.45502851974747
3,4.254254254254255,0.6604899037509593,65,87.45502851974747
3,4.2642642642642645,0.7148144407627741,65,87.45502851974747
3,4.2742742742742745,0.7338827243963293,65,87.45502851974747
3,4.2842842842842845,0.7566381112448223,65,87.45502851974747
3,4.294294294294295,0.7703315521395541,65,87.45502851974747
3,4.3043043043043046,0.7731801963231459,65,87.45502851974747
3,4.314314314314315,0.7782412819324306,65,87.45502851974747
3,4.324324324324325,0.7713721959779875,65,87.45502851974747
3,4.334334334334335,0.7469371885211488,65,87.45502851974747
3,4.344344344344345,0.7146132306243463,65,87.45502851974747
3,4.354354354354355,0.6869497660978421,65,87.45502851974747
3,4.364364364364365,0.6481411117690803,65,87.45502851974747
3,4.374374374374375,0.6006017816702528,65,87.45502851974747
3,4.384384384384385,0.5527338288224347,65,87.45502851974747
3,4.394394394394395,0.5111130840565543,65,87.45502851974747
3,4.404404404404405,0.4526158567535425,65,87.45502851974747
3,4.414414414414415,0.4081893930243551,65,87.45502851974747
3,4.424424424424425,0.355673435414912,65,87.45502851974747
3,4.434434434434435,0.3081090920535926,65,87.45502851974747
3,4.444444444444445,0.2640496035796489,65,87.45502851974747
3,4.454454454454455,0.2136277973089018,65,87.45502851974747
3,4.464464464464465,0.17713617326528,65,87.45502851974747
3,4.474474474474475,0.1411942457461559,65,87.45502851974747
3,4.484484484484485,0.1041617011760728,65,87.45502851974747
3,4.494494494494495,0.0770162911704624,65,87.45502851974747
3,4.504504504504505,0.0566848018924577,65,87.45502851974747
3,4.514514514514515,0.0423133760824848,65,87.45502851974747
3,4.524524524524525,0.0311628619722124,65,87.45502851974747
3,4.534534534534535,0.0218777429201055,65,87.45502851974747
3,4.544544544544545,0.002569861541961,65,87.45502851974747
3,4.554554554554555,0.0069565232334639,65,87.45502851974747
3,4.564564564564565,-0.0024220470643436,65,87.45502851974747
3,4.574574574574575,0.0025275311307552,65,87.45502851974747
3,4.584584584584585,0.000675187132172,65,87.45502851974747
3,4.594594594594595,-0.0115716441323453,65,87.45502851974747
3,4.604604604604605,-0.0006908078512554,65,87.45502851974747
3,4.614614614614615,0.0003133014111997,65,87.45502851974747
3,4.624624624624625,-0.0078623638941831,65,87.45502851974747
3,4.634634634634635,-0.0141959967247148,65,87.45502851974747
3,4.644644644644645,-0.0226495638836224,65,87.45502851974747
3,4.654654654654655,-0.0488492532533409,65,87.45502851974747
3,4.664664664664665,-0.0585158277395756,65,87.45502851974747
3,4.674674674674675,-0.0867331760132018,65,87.45502851974747
3,4.684684684684685,-0.1102494005347063,65,87.45502851974747
3,4.694694694694695,-0.1555026952746095,65,87.45502851974747
3,4.704704704704705,-0.1904555377595705,65,87.45502851974747
3,4.714714714714715,-0.2349552589339633,65,87.45502851974747
3,4.724724724724725,-0.2803080480023369,65,87.45502851974747
3,4.734734734734735,-0.3203024321925022,65,87.45502851974747
3,4.744744744744745,-0.3652471165194069,65,87.45502851974747
3,4.754754754754755,-0.4242957129616557,65,87.45502851974747
3,4.764764764764765,-0.4665801539259756,65,87.45502851974747
3,4.774774774774775,-0.515118004157938,65,87.45502851974747
3,4.784784784784785,-0.5713568557954076,65,87.45502851974747
3,4.794794794794795,-0.612343354794779,65,87.45502851974747
3,4.804804804804805,-0.6475499838066157,65,87.45502851974747
3,4.814814814814815,-0.6991310680902195,65,87.45502851974747
3,4.824824824824825,-0.7235286108133608,65,87.45502851974747
3,4.834834834834835,-0.751356410421392,65,87.45502851974747
3,4.844844844844845,-0.7721275256268062,65,87.45502851974747
3,4.854854854854855,-0.7791452424887013,65,87.45502851974747
3,4.864864864864865,-0.7759964902897518,65,87.45502851974747
3,4.874874874874875,-0.7747658221741359,65,87.45502851974747
3,4.884884884884885,-0.7570681858113486,65,87.45502851974747
3,4.894894894894895,-0.7359898343391433,65,87.45502851974747
3,4.904904904904905,-0.6918707302876964,65,87.45502851974747
3,4.914914914914915,-0.6387776845455679,65,87.45502851974747
3,4.924924924924925,-0.5957836169014356,65,87.45502851974747
3,4.934934934934935,-0.5356706014842214,65,87.45502851974747
3,4.944944944944945,-0.4691536823114134,65,87.45502851974747
3,4.954954954954955,-0.3907974880750781,65,87.45502851974747
3,4.964964964964965,-0.3081635536126245,65,87.45502851974747
3,4.974974974974975,-0.226402879751435,65,87.45502851974747
3,4.984984984984985,-0.1328800259254131,65,87.45502851974747
3,4.994994994994995,-0.036044706830798,65,87.45502851974747
3,5.005005005005005,0.0455006857233781,65,87.45502851974747
3,5.015015015015015,0.1285848426665711,65,87.45502851974747
3,5.025025025025025,0.2185681450234862,65,87.45502851974747
3,5.035035035035035,0.300587858283965,65,87.45502851974747
3,5.045045045045045,0.3934980651659889,65,87.45502851974747
3,5.055055055055055,0.461417065493474,65,87.45502851974747
3,5.065065065065065,0.5378944809626708,65,87.45502851974747
3,5.075075075075075,0.59722395364632,65,87.45502851974747
3,5.085085085085085,0.6442041070794653,65,87.45502851974747
3,5.095095095095095,0.6926484564428689,65,87.45502851974747
3,5.105105105105105,0.7368174702665421,65,87.45502851974747
3,5.115115115115115,0.7523213050120081,65,87.45502851974747
3,5.125125125125125,0.7745514050610925,65,87.45502851974747
3,5.135135135135135,0.7721947301180435,65,87.45502851974747
3,5.145145145145145,0.7788405019261414,65,87.45502851974747
3,5.155155155155155,0.7635070369208001,65,87.45502851974747
3,5.165165165165165,0.7493512508683129,65,87.45502851974747
3,5.175175175175175,0.7210217953322514,65,87.45502851974747
3,5.185185185185185,0.6946010652718797,65,87.45502851974747
3,5.195195195195195,0.6562184655191035,65,87.45502851974747
3,5.205205205205205,0.6103737022882871,65,87.45502851974747
3,5.215215215215215,0.5689268500660731,65,87.45502851974747
3,5.225225225225225,0.5172897792753779,65,87.45502851974747
3,5.235235235235235,0.4628025068141754,65,87.45502851974747
3,5.245245245245245,0.4250585035032112,65,87.45502851974747
3,5.255255255255255,0.3669048366157145,65,87.45502851974747
3,5.265265265265265,0.3198499138406571,65,87.45502851974747
3,5.275275275275275,0.2704544712916004,65,87.45502851974747
3,5.285285285285285,0.2211559753758153,65,87.45502851974747
3,5.295295295295295,0.1818452365128173,65,87.45502851974747
3,5.305305305305305,0.1488100119566462,65,87.45502851974747
3,5.315315315315315,0.1087510300526196,65,87.45502851974747
3,5.325325325325325,0.0889757992011622,65,87.45502851974747
3,5.335335335335335,0.0705433650064314,65,87.45502851974747
3,5.345345345345345,0.0474094832453506,65,87.45502851974747
3,5.355355355355355,0.0292057755057048,65,87.45502851974747
3,5.365365365365365,0.0164281153480868,65,87.45502851974747
3,5.375375375375375,-0.0001789746437578,65,87.45502851974747
3,5.385385385385385,-0.0077299920124266,65,87.45502851974747
3,5.395395395395395,-0.0005932082818972,65,87.45502851974747
3,5.405405405405405,-0.00175778544432,65,87.45502851974747
3,5.415415415415415,-0.0013357529580779,65,87.45502851974747
3,5.425425425425425,-0.0030960572201093,65,87.45502851974747
3,5.435435435435435,-0.0038290585519555,65,87.45502851974747
3,5.445445445445445,-0.0021610165401221,65,87.45502851974747
3,5.455455455455455,-0.0136790628731685,65,87.45502851974747
3,5.465465465465465,-0.0179515492565131,65,87.45502851974747
3,5.475475475475475,-0.0231790118627558,65,87.45502851974747
3,5.485485485485485,-0.0438516195130411,65,87.45502851974747
3,5.495495495495495,-0.0616111807567634,65,87.45502851974747
3,5.505505505505505,-0.07118117059017,65,87.45502851974747
3,5.515515515515515,-0.1015534713340602,65,87.45502851974747
3,5.525525525525525,-0.1429131478466632,65,87.45502851974747
3,5.535535535535535,-0.1715307508631138,65,87.45502851974747
3,5.545545545545545,-0.2098886623585295,65,87.45502851974747
3,5.555555555555555,-0.2572794581445876,65,87.45502851974747
3,5.565565565565565,-0.3115751065579482,65,87.45502851974747
3,5.575575575575575,-0.3588539853750707,65,87.45502851974747
3,5.585585585585585,-0.4145765487576601,65,87.45502851974747
3,5.595595595595595,-0.4566662313392256,65,87.45502851974747
3,5.605605605605605,-0.4991952927844368,65,87.45502851974747
3,5.615615615615615,-0.5505429695224547,65,87.45502851974747
3,5.625625625625625,-0.6033075274571736,65,87.45502851974747
3,5.635635635635635,-0.6489491371212586,65,87.45502851974747
3,5.645645645645645,-0.6833224609065619,65,87.45502851974747
3,5.655655655655655,-0.708070052805995,65,87.45502851974747
3,5.665665665665665,-0.7523216477794956,65,87.45502851974747
3,5.675675675675675,-0.7650430115083225,65,87.45502851974747
3,5.685685685685685,-0.776387708768061,65,87.45502851974747
3,5.695695695695696,-0.7752139832486489,65,87.45502851974747
3,5.7057057057057055,-0.7731969643275808,65,87.45502851974747
3,5.715715715715716,-0.768277310509509,65,87.45502851974747
3,5.7257257257257255,-0.7383529579116463,65,87.45502851974747
3,5.735735735735736,-0.7060545465866964,65,87.45502851974747
3,5.7457457457457455,-0.6578484967427876,65,87.45502851974747
3,5.755755755755756,-0.6091970553829427,65,87.45502851974747
3,5.7657657657657655,-0.5569284603005282,65,87.45502851974747
3,5.775775775775776,-0.4773173612765748,65,87.45502851974747
3,5.7857857857857855,-0.4047964827061095,65,87.45502851974747
3,5.795795795795796,-0.324526385953499,65,87.45502851974747
3,5.8058058058058055,-0.2348764430782466,65,87.45502851974747
3,5.815815815815816,-0.1656475052880662,65,87.45502851974747
3,5.8258258258258255,-0.0740889657350978,65,87.45502851974747
3,5.835835835835836,0.0217608375237228,65,87.45502851974747
3,5.8458458458458455,0.106825458815736,65,87.45502851974747
3,5.855855855855856,0.2040428266098484,65,87.45502851974747
3,5.865865865865866,0.286535215742863,65,87.45502851974747
3,5.875875875875876,0.3679744913015771,65,87.45502851974747
3,5.885885885885886,0.4426082014138248,65,87.45502851974747
3,5.895895895895896,0.5223403197497127,65,87.45502851974747
3,5.905905905905906,0.5774056864338454,65,87.45502851974747
3,5.915915915915916,0.6366283256555764,65,87.45502851974747
3,5.925925925925926,0.6866954752997528,65,87.45502851974747
3,5.935935935935936,0.728876016541466,65,87.45502851974747
3,5.945945945945946,0.7486593098407436,65,87.45502851974747
3,5.955955955955956,0.7705718746814728,65,87.45502851974747
3,5.965965965965966,0.773833189527165,65,87.45502851974747
3,5.975975975975976,0.7887262530844503,65,87.45502851974747
3,5.985985985985986,0.7732193246261301,65,87.45502851974747
3,5.995995995995996,0.7555808321977898,65,87.45502851974747
3,6.006006006006006,0.7396023810587711,65,87.45502851974747
3,6.016016016016016,0.7029121692507296,65,87.45502851974747
3,6.026026026026026,0.6654303877195905,65,87.45502851974747
3,6.036036036036036,0.6327433360037031,65,87.45502851974747
3,6.046046046046046,0.5905702105900001,65,87.45502851974747
3,6.056056056056056,0.5349373626307208,65,87.45502851974747
3,6.066066066066066,0.4902952994229519,65,87.45502851974747
3,6.076076076076076,0.4340701625355907,65,87.45502851974747
3,6.086086086086086,0.3787454041603433,65,87.45502851974747
3,6.096096096096096,0.331808360041648,65,87.45502851974747
3,6.106106106106106,0.2772457352528287,65,87.45502851974747
3,6.116116116116116,0.2387934267719698,65,87.45502851974747
3,6.126126126126126,0.1944558684697329,65,87.45502851974747
3,6.136136136136136,0.1522129620484881,65,87.45502851974747
3,6.146146146146146,0.1203830328837052,65,87.45502851974747
3,6.156156156156156,0.0889346221707958,65,87.45502851974747
3,6.166166166166166,0.0714860057633794,65,87.45502851974747
3,6.176176176176176,0.0426863339591501,65,87.45502851974747
3,6.186186186186186,0.0232263047165372,65,87.45502851974747
3,6.196196196196196,0.0244703467081864,65,87.45502851974747
3,6.206206206206206,0.0115351581114959,65,87.45502851974747
3,6.216216216216216,0.0037832944444068,65,87.45502851974747
3,6.226226226226226,-0.004669855364599,65,87.45502851974747
3,6.236236236236236,0.0090619782227764,65,87.45502851974747
3,6.246246246246246,0.0034793408936779,65,87.45502851974747
3,6.256256256256256,-0.0061580184605691,65,87.45502851974747
3,6.266266266266266,-0.0008418202324276,65,87.45502851974747
3,6.276276276276276,-0.0032975884461713,65,87.45502851974747
3,6.286286286286286,-0.0089744066872539,65,87.45502851974747
3,6.296296296296296,-0.008658758024516,65,87.45502851974747
3,6.306306306306306,-0.0232691707535715,65,87.45502851974747
3,6.316316316316316,-0.0397538256118537,65,87.45502851974747
3,6.326326326326326,-0.0638000147061437,65,87.45502851974747
3,6.336336336336336,-0.0903239836709533,65,87.45502851974747
3,6.346346346346346,-0.0987934185555761,65,87.45502851974747
3,6.356356356356356,-0.1421266771909459,65,87.45502851974747
3,6.366366366366366,-0.1620172767229987,65,87.45502851974747
3,6.376376376376376,-0.2018952721362457,65,87.45502851974747
3,6.386386386386386,-0.2544199927831365,65,87.45502851974747
3,6.396396396396396,-0.2960475678495338,65,87.45502851974747
3,6.406406406406406,-0.338720921603156,65,87.45502851974747
3,6.416416416416417,-0.4010392613307471,65,87.45502851974747
3,6.426426426426427,-0.4419658760986542,65,87.45502851974747
3,6.436436436436437,-0.4959275510817644,65,87.45502851974747
3,6.446446446446447,-0.5403184841838355,65,87.45502851974747
3,6.456456456456457,-0.5902940690989198,65,87.45502851974747
3,6.466466466466467,-0.63168835846712,65,87.45502851974747
3,6.476476476476477,-0.6723910955123842,65,87.45502851974747
3,6.486486486486487,-0.7095450633546646,65,87.45502851974747
3,6.496496496496497,-0.7315189461333715,65,87.45502851974747
3,6.506506506506507,-0.7615841771761843,65,87.45502851974747
3,6.516516516516517,-0.7748078301069341,65,87.45502851974747
3,6.526526526526527,-0.773401393925653,65,87.45502851974747
3,6.536536536536537,-0.778912786787791,65,87.45502851974747
3,6.546546546546547,-0.7640708466691971,65,87.45502851974747
3,6.556556556556557,-0.7420748447006853,65,87.45502851974747
3,6.566566566566567,-0.7096126637159361,65,87.45502851974747
3,6.576576576576577,-0.6795634972265568,65,87.45502851974747
3,6.586586586586587,-0.6218520169553947,65,87.45502851974747
3,6.596596596596597,-0.5566186852366677,65,87.45502851974747
3,6.606606606606607,-0.4920195407035998,65,87.45502851974747
3,6.616616616616617,-0.4190120956267661,65,87.45502851974747
3,6.626626626626627,-0.3522209105922358,65,87.45502851974747
3,6.636636636636637,-0.2611294753457456,65,87.45502851974747
3,6.646646646646647,-0.1792092602049217,65,87.45502851974747
3,6.656656656656657,-0.0955970078078903,65,87.45502851974747
3,6.666666666666667,-0.0100289785072212,65,87.45502851974747
3,6.676676676676677,0.0834217658079482,65,87.45502851974747
3,6.686686686686687,0.1818437528177495,65,87.45502851974747
3,6.696696696696697,0.2742743763665762,65,87.45502851974747
3,6.706706706706707,0.3540383393661148,65,87.45502851974747
3,6.716716716716717,0.4308617762933258,65,87.45502851974747
3,6.726726726726727,0.496428858718619,65,87.45502851974747
3,6.736736736736737,0.5703938737430688,65,87.45502851974747
3,6.746746746746747,0.6255670918447923,65,87.45502851974747
3,6.756756756756757,0.6642759325426326,65,87.45502851974747
3,6.766766766766767,0.7139474927538834,65,87.45502851974747
3,6.776776776776777,0.7456869261285598,65,87.45502851974747
3,6.786786786786787,0.7695260846086012,65,87.45502851974747
3,6.796796796796797,0.7723093465894993,65,87.45502851974747
3,6.806806806806807,0.7818559766713222,65,87.45502851974747
3,6.816816816816817,0.7740080009367198,65,87.45502851974747
3,6.826826826826827,0.7583800908149961,65,87.45502851974747
3,6.836836836836837,0.7358759502024075,65,87.45502851974747
3,6.846846846846847,0.7177054077728621,65,87.45502851974747
3,6.856856856856857,0.6716968900816092,65,87.45502851974747
3,6.866866866866867,0.6354438446654924,65,87.45502851974747
3,6.876876876876877,0.5945034866664224,65,87.45502851974747
3,6.886886886886887,0.5476484482038079,65,87.45502851974747
3,6.896896896896897,0.4924277464132914,65,87.45502851974747
3,6.906906906906907,0.4431838531681782,65,87.45502851974747
3,6.916916916916917,0.3912378347631259,65,87.45502851974747
3,6.926926926926927,0.345835045934215,65,87.45502851974747
3,6.936936936936937,0.2932814854535261,65,87.45502851974747
3,6.946946946946947,0.2506424831983794,65,87.45502851974747
3,6.956956956956957,0.2076071900804645,65,87.45502851974747
3,6.966966966966967,0.1767486317580995,65,87.45502851974747
3,6.976976976976977,0.1323375429848976,65,87.45502851974747
3,6.986986986986987,0.0986306020461198,65,87.45502851974747
3,6.996996996996997,0.082123485283356,65,87.45502851974747
3,7.007007007007007,0.0516024244223692,65,87.45502851974747
3,7.017017017017017,0.0379964839680463,65,87.45502851974747
3,7.027027027027027,0.0306601569929286,65,87.45502851974747
3,7.037037037037037,0.0105954238902397,65,87.45502851974747
3,7.047047047047047,0.0137308444022287,65,87.45502851974747
3,7.057057057057057,-0.0065253959110487,65,87.45502851974747
3,7.067067067067067,-0.0076716641182987,65,87.45502851974747
3,7.077077077077077,-0.0016926759441265,65,87.45502851974747
3,7.087087087087087,0.0006473171207265,65,87.45502851974747
3,7.097097097097097,-0.0001873146267559,65,87.45502851974747
3,7.107107107107107,-0.0028253671057083,65,87.45502851974747
3,7.117117117117117,-0.0105089874451739,65,87.45502851974747
3,7.127127127127127,-0.0137935417543212,65,87.45502851974747
3,7.137137137137137,-0.0165660010384377,65,87.45502851974747
3,7.147147147147147,-0.0337953278736125,65,87.45502851974747
3,7.157157157157157,-0.0410416192655307,65,87.45502851974747
3,7.167167167167167,-0.0684253053137937,65,87.45502851974747
3,7.177177177177177,-0.08972140807906,65,87.45502851974747
3,7.187187187187187,-0.120234312554047,65,87.45502851974747
3,7.197197197197197,-0.1560740993295805,65,87.45502851974747
3,7.207207207207207,-0.1883391216189933,65,87.45502851974747
3,7.217217217217217,-0.2406680784465136,65,87.45502851974747
3,7.227227227227227,-0.2821117378492779,65,87.45502851974747
3,7.237237237237237,-0.3236676980525795,65,87.45502851974747
3,7.247247247247247,-0.3849160553221148,65,87.45502851974747
3,7.257257257257257,-0.429859755619878,65,87.45502851974747
3,7.267267267267267,-0.4872946892512075,65,87.45502851974747
3,7.277277277277277,-0.5346955092110145,65,87.45502851974747
3,7.287287287287287,-0.5728213587579165,65,87.45502851974747
3,7.297297297297297,-0.6213981177977641,65,87.45502851974747
3,7.307307307307307,-0.6668179592559087,65,87.45502851974747
3,7.317317317317317,-0.7056134002847073,65,87.45502851974747
3,7.327327327327327,-0.7416778001871294,65,87.45502851974747
3,7.337337337337337,-0.7580245188396273,65,87.45502851974747
3,7.347347347347347,-0.7802031717293528,65,87.45502851974747
3,7.357357357357357,-0.7821438910483856,65,87.45502851974747
3,7.367367367367367,-0.7791065599772504,65,87.45502851974747
3,7.377377377377377,-0.762839936002541,65,87.45502851974747
3,7.387387387387387,-0.7469254135386888,65,87.45502851974747
3,7.397397397397397,-0.7158548775317316,65,87.45502851974747
3,7.407407407407407,-0.6843122908696438,65,87.45502851974747
3,7.4174174174174174,-0.630505492066974,65,87.45502851974747
3,7.4274274274274275,-0.5825651648467716,65,87.45502851974747
3,7.437437437437437,-0.5141869306510031,65,87.45502851974747
3,7.447447447447447,-0.4457651878573692,65,87.45502851974747
3,7.4574574574574575,-0.3666796975020994,65,87.45502851974747
3,7.4674674674674675,-0.2924712754335407,65,87.45502851974747
3,7.477477477477477,-0.1977683883366246,65,87.45502851974747
3,7.487487487487487,-0.1151844736959846,65,87.45502851974747
3,7.4974974974974975,-0.0200076696201287,65,87.45502851974747
3,7.5075075075075075,0.064733106739319,65,87.45502851974747
3,7.517517517517517,0.1501709744214098,65,87.45502851974747
3,7.527527527527527,0.237704663248556,65,87.45502851974747
3,7.5375375375375375,0.326793413303229,65,87.45502851974747
3,7.5475475475475475,0.4169604410406101,65,87.45502851974747
3,7.557557557557557,0.4803480638766466,65,87.45502851974747
3,7.567567567567567,0.5497516885047016,65,87.45502851974747
3,7.5775775775775776,0.620278110080804,65,87.45502851974747
3,7.587587587587588,0.662493751029051,65,87.45502851974747
3,7.597597597597598,0.7009156545063511,65,87.45502851974747
3,7.607607607607608,0.7393482151992465,65,87.45502851974747
3,7.617617617617618,0.7631416150871713,65,87.45502851974747
3,7.627627627627628,0.7748191969304336,65,87.45502851974747
3,7.637637637637638,0.780105676407685,65,87.45502851974747
3,7.647647647647648,0.7760260435386461,65,87.45502851974747
3,7.657657657657658,0.763585234442944,65,87.45502851974747
3,7.667667667667668,0.7467851904319556,65,87.45502851974747
3,7.677677677677678,0.7149360795818275,65,87.45502851974747
3,7.687687687687688,0.6820993687487998,65,87.45502851974747
3,7.697697697697698,0.6430319556572324,65,87.45502851974747
3,7.707707707707708,0.6014292462088285,65,87.45502851974747
3,7.717717717717718,0.5624809943618521,65,87.45502851974747
3,7.727727727727728,0.5104868800239354,65,87.45502851974747
3,7.737737737737738,0.449435124786096,65,87.45502851974747
3,7.747747747747748,0.3997844452534285,65,87.45502851974747
3,7.757757757757758,0.3510016459797452,65,87.45502851974747
3,7.767767767767768,0.2974565372203346,65,87.45502851974747
3,7.777777777777778,0.2648579732225217,65,87.45502851974747
3,7.787787787787788,0.214747643513616,65,87.45502851974747
3,7.797797797797798,0.1750856944026403,65,87.45502851974747
3,7.807807807807808,0.1411142327029178,65,87.45502851974747
3,7.817817817817818,0.115403552327082,65,87.45502851974747
3,7.827827827827828,0.0817793407222482,65,87.45502851974747
3,7.837837837837838,0.0508535201613391,65,87.45502851974747
3,7.847847847847848,0.0462634542265301,65,87.45502851974747
3,7.857857857857858,0.0207938870999162,65,87.45502851974747
3,7.867867867867868,0.0155107221910314,65,87.45502851974747
3,7.877877877877878,0.0032705569850408,65,87.45502851974747
3,7.887887887887888,0.0018231766068335,65,87.45502851974747
3,7.897897897897898,0.0030541741496038,65,87.45502851974747
3,7.907907907907908,0.0044452455131165,65,87.45502851974747
3,7.917917917917918,-0.0047997274545568,65,87.45502851974747
3,7.927927927927928,-0.002417065699077,65,87.45502851974747
3,7.937937937937938,0.0042763548400404,65,87.45502851974747
3,7.947947947947948,-0.0015201295816112,65,87.45502851974747
3,7.957957957957958,-0.0096219222331481,65,87.45502851974747
3,7.967967967967968,-0.0103956338520669,65,87.45502851974747
3,7.977977977977978,-0.0349733771876542,65,87.45502851974747
3,7.987987987987988,-0.0422089799500792,65,87.45502851974747
3,7.997997997997998,-0.0606681561298305,65,87.45502851974747
3,8.008008008008009,-0.0887108349731715,65,87.45502851974747
3,8.018018018018019,-0.1239300928500496,65,87.45502851974747
3,8.028028028028029,-0.1598235326501292,65,87.45502851974747
3,8.038038038038039,-0.1865223873527539,65,87.45502851974747
3,8.048048048048049,-0.2244645779122675,65,87.45502851974747
3,8.058058058058059,-0.2825188221813389,65,87.45502851974747
3,8.068068068068069,-0.3183984870789147,65,87.45502851974747
3,8.078078078078079,-0.3692418248001991,65,87.45502851974747
3,8.088088088088089,-0.4202866037533294,65,87.45502851974747
3,8.098098098098099,-0.4668384444274774,65,87.45502851974747
3,8.108108108108109,-0.5198962114920697,65,87.45502851974747
3,8.118118118118119,-0.5691495932852252,65,87.45502851974747
3,8.128128128128129,-0.6240229595470607,65,87.45502851974747
3,8.138138138138139,-0.6556313225299961,65,87.45502851974747
3,8.148148148148149,-0.69490753245785,65,87.45502851974747
3,8.158158158158159,-0.7262206249682973,65,87.45502851974747
3,8.168168168168169,-0.7495948608057897,65,87.45502851974747
3,8.178178178178179,-0.771808658532681,65,87.45502851974747
3,8.188188188188189,-0.7802357214081312,65,87.45502851974747
3,8.198198198198199,-0.7891216957749418,65,87.45502851974747
3,8.208208208208209,-0.7692712982215102,65,87.45502851974747
3,8.218218218218219,-0.7571129172135855,65,87.45502851974747
3,8.228228228228229,-0.7274649246968764,65,87.45502851974747
3,8.238238238238239,-0.6947683856438218,65,87.45502851974747
3,8.248248248248249,-0.6339460375987416,65,87.45502851974747
3,8.258258258258259,-0.5946967246670319,65,87.45502851974747
3,8.268268268268269,-0.5348566472902203,65,87.45502851974747
3,8.278278278278279,-0.4612501883381115,65,87.45502851974747
3,8.288288288288289,-0.3903461244113516,65,87.45502851974747
3,8.298298298298299,-0.305914678733893,65,87.45502851974747
3,8.308308308308309,-0.2273963652936404,65,87.45502851974747
3,8.318318318318319,-0.1224594271373354,65,87.45502851974747
3,8.328328328328329,-0.0458654546064554,65,87.45502851974747
3,8.338338338338339,0.0508768282685436,65,87.45502851974747
3,8.348348348348349,0.13772862504785,65,87.45502851974747
3,8.358358358358359,0.2124813518052188,65,87.45502851974747
3,8.368368368368369,0.3095337349480578,65,87.45502851974747
3,8.378378378378379,0.3928502353422831,65,87.45502851974747
3,8.388388388388389,0.4618564362844145,65,87.45502851974747
3,8.398398398398399,0.5342986701344349,65,87.45502851974747
3,8.408408408408409,0.5980311961319751,65,87.45502851974747
3,8.418418418418419,0.6406006334566304,65,87.45502851974747
3,8.428428428428429,0.6821760097285853,65,87.45502851974747
3,8.438438438438439,0.7303742871977421,65,87.45502851974747
3,8.448448448448449,0.7544031047290606,65,87.45502851974747
3,8.458458458458459,0.772449778092687,65,87.45502851974747
3,8.468468468468469,0.7762939715741631,65,87.45502851974747
3,8.478478478478479,0.7848860993176477,65,87.45502851974747
3,8.488488488488489,0.7706194501732195,65,87.45502851974747
3,8.498498498498499,0.7511371281258368,65,87.45502851974747
3,8.508508508508509,0.7234865028537172,65,87.45502851974747
3,8.518518518518519,0.7011407022605136,65,87.45502851974747
3,8.528528528528529,0.6609224276793497,65,87.45502851974747
3,8.538538538538539,0.6096829387538467,65,87.45502851974747
3,8.548548548548549,0.5751020843150733,65,87.45502851974747
3,8.558558558558559,0.5220639423176262,65,87.45502851974747
3,8.568568568568569,0.4748681201114727,65,87.45502851974747
3,8.578578578578579,0.411195477142233,65,87.45502851974747
3,8.588588588588589,0.3671668080241884,65,87.45502851974747
3,8.598598598598599,0.3229885315295583,65,87.45502851974747
3,8.608608608608609,0.2668121867506118,65,87.45502851974747
3,8.618618618618619,0.2323271199080533,65,87.45502851974747
3,8.62862862862863,0.1839018597761245,65,87.45502851974747
3,8.63863863863864,0.1454748261991497,65,87.45502851974747
3,8.64864864864865,0.1150931227748355,65,87.45502851974747
3,8.65865865865866,0.0805333160363914,65,87.45502851974747
3,8.66866866866867,0.0573971552969018,65,87.45502851974747
3,8.67867867867868,0.0446562805574783,65,87.45502851974747
3,8.68868868868869,0.0275543374742994,65,87.45502851974747
3,8.6986986986987,0.0214578783201235,65,87.45502851974747
3,8.70870870870871,0.0092826242874882,65,87.45502851974747
3,8.71871871871872,-0.0003194323653013,65,87.45502851974747
3,8.72872872872873,-0.0043938110152817,65,87.45502851974747
3,8.73873873873874,-0.0006526230391063,65,87.45502851974747
3,8.74874874874875,-0.0045487122940559,65,87.45502851974747
3,8.75875875875876,-0.0046891298232273,65,87.45502851974747
3,8.76876876876877,-0.0016652128043557,65,87.45502851974747
3,8.77877877877878,-0.0003898694030198,65,87.45502851974747
3,8.78878878878879,-0.0162706205080038,65,87.45502851974747
3,8.7987987987988,-0.0214329527272821,65,87.45502851974747
3,8.80880880880881,-0.0284606227065784,65,87.45502851974747
3,8.81881881881882,-0.034663430280919,65,87.45502851974747
3,8.82882882882883,-0.0560742993797746,65,87.45502851974747
3,8.83883883883884,-0.0749744586012351,65,87.45502851974747
3,8.84884884884885,-0.1127506617792799,65,87.45502851974747
3,8.85885885885886,-0.1465803731148597,65,87.45502851974747
3,8.86886886886887,-0.1799756688990431,65,87.45502851974747
3,8.87887887887888,-0.2219832430417518,65,87.45502851974747
3,8.88888888888889,-0.26333683122364,65,87.45502851974747
3,8.8988988988989,-0.3055770564512889,65,87.45502851974747
3,8.90890890890891,-0.3589099698411131,65,87.45502851974747
3,8.91891891891892,-0.4062643290078008,65,87.45502851974747
3,8.92892892892893,-0.4672534770972055,65,87.45502851974747
3,8.93893893893894,-0.5080205171640131,65,87.45502851974747
3,8.94894894894895,-0.5585599252138288,65,87.45502851974747
3,8.95895895895896,-0.5995124986500354,65,87.45502851974747
3,8.96896896896897,-0.6326429411495845,65,87.45502851974747
3,8.97897897897898,-0.6930382526177417,65,87.45502851974747
3,8.98898898898899,-0.7171021784995621,65,87.45502851974747
3,8.998998998999,-0.7333535481591819,65,87.45502851974747
3,9.00900900900901,-0.7564069228127506,65,87.45502851974747
3,9.01901901901902,-0.7764411307617082,65,87.45502851974747
3,9.02902902902903,-0.7826036831015095,65,87.45502851974747
3,9.03903903903904,-0.7768033110062617,65,87.45502851974747
3,9.04904904904905,-0.7615741541736504,65,87.45502851974747
3,9.05905905905906,-0.7345848442269409,65,87.45502851974747
3,9.06906906906907,-0.7019762730623855,65,87.45502851974747
3,9.07907907907908,-0.654292552813659,65,87.45502851974747
3,9.08908908908909,-0.6089275719181767,65,87.45502851974747
3,9.0990990990991,-0.5528668761267712,65,87.45502851974747
3,9.10910910910911,-0.4795396688933125,65,87.45502851974747
3,9.11911911911912,-0.4087590465845486,65,87.45502851974747
3,9.12912912912913,-0.3382728687089111,65,87.45502851974747
3,9.13913913913914,-0.2393560151533459,65,87.45502851974747
3,9.14914914914915,-0.1636610058179792,65,87.45502851974747
3,9.15915915915916,-0.0659136975927787,65,87.45502851974747
3,9.16916916916917,0.0082301065522114,65,87.45502851974747
3,9.17917917917918,0.1116095249823916,65,87.45502851974747
3,9.18918918918919,0.1999432225673788,65,87.45502851974747
3,9.1991991991992,0.2872480275327798,65,87.45502851974747
3,9.20920920920921,0.3729990497619024,65,87.45502851974747
3,9.21921921921922,0.4419035092395563,65,87.45502851974747
3,9.22922922922923,0.5051962708354123,65,87.45502851974747
3,9.23923923923924,0.5769509788615912,65,87.45502851974747
3,9.24924924924925,0.6363357645958779,65,87.45502851974747
3,9.25925925925926,0.6845981895886983,65,87.45502851974747
3,9.26926926926927,0.7195840872277296,65,87.45502851974747
3,9.27927927927928,0.7546885077863558,65,87.45502851974747
3,9.28928928928929,0.7682326726119534,65,87.45502851974747
3,9.2992992992993,0.7668920227847019,65,87.45502851974747
3,9.30930930930931,0.7781614622815163,65,87.45502851974747
3,9.31931931931932,0.7697333377009035,65,87.45502851974747
3,9.32932932932933,0.7578224761550458,65,87.45502851974747
3,9.33933933933934,0.7301205917972664,65,87.45502851974747
3,9.34934934934935,0.699564780297361,65,87.45502851974747
3,9.35935935935936,0.6578165467470433,65,87.45502851974747
3,9.36936936936937,0.6236704606016619,65,87.45502851974747
3,9.37937937937938,0.5772651156073517,65,87.45502851974747
3,9.38938938938939,0.5357838121642234,65,87.45502851974747
3,9.3993993993994,0.4864131275929568,65,87.45502851974747
3,9.40940940940941,0.432667996352827,65,87.45502851974747
3,9.41941941941942,0.3834017215042681,65,87.45502851974747
3,9.42942942942943,0.3267836008283003,65,87.45502851974747
3,9.43943943943944,0.2811373817231771,65,87.45502851974747
3,9.44944944944945,0.2423512547323609,65,87.45502851974747
3,9.45945945945946,0.1974128449189493,65,87.45502851974747
3,9.46946946946947,0.1624336540330436,65,87.45502851974747
3,9.47947947947948,0.1282355970469579,65,87.45502851974747
3,9.48948948948949,0.1047986733495626,65,87.45502851974747
3,9.4994994994995,0.0615778541840997,65,87.45502851974747
3,9.50950950950951,0.0468584466996914,65,87.45502851974747
3,9.51951951951952,0.0300579475502041,65,87.45502851974747
3,9.52952952952953,0.0241246179561888,65,87.45502851974747
3,9.53953953953954,-0.0010288979197477,65,87.45502851974747
3,9.54954954954955,0.0074961668831685,65,87.45502851974747
3,9.55955955955956,7.750474675261845e-05,65,87.45502851974747
3,9.56956956956957,-0.0036341280147827,65,87.45502851974747
3,9.57957957957958,-0.0006327315044983,65,87.45502851974747
3,9.58958958958959,0.0072345195770992,65,87.45502851974747
3,9.5995995995996,-0.0019857381882656,65,87.45502851974747
3,9.60960960960961,-0.0029931036747255,65,87.45502851974747
3,9.61961961961962,-0.0031973433356988,65,87.45502851974747
3,9.62962962962963,-0.0030603383094916,65,87.45502851974747
3,9.63963963963964,-0.0205604397491656,65,87.45502851974747
3,9.64964964964965,-0.0291840447734562,65,87.45502851974747
3,9.65965965965966,-0.0488547770169082,65,87.45502851974747
3,9.66966966966967,-0.0743001962586113,65,87.45502851974747
3,9.67967967967968,-0.1041653163009166,65,87.45502851974747
3,9.68968968968969,-0.1399719804169226,65,87.45502851974747
3,9.6996996996997,-0.1655803764088551,65,87.45502851974747
3,9.70970970970971,-0.2052535329106274,65,87.45502851974747
3,9.71971971971972,-0.244298903779711,65,87.45502851974747
3,9.72972972972973,-0.2976419949877574,65,87.45502851974747
3,9.73973973973974,-0.3427496422259409,65,87.45502851974747
3,9.74974974974975,-0.4014271421034588,65,87.45502851974747
3,9.75975975975976,-0.4437556731548743,65,87.45502851974747
3,9.76976976976977,-0.496452836661497,65,87.45502851974747
3,9.77977977977978,-0.5475694094108488,65,87.45502851974747
3,9.78978978978979,-0.5883930128047116,65,87.45502851974747
3,9.7997997997998,-0.6401834641184453,65,87.45502851974747
3,9.80980980980981,-0.674519043594243,65,87.45502851974747
3,9.81981981981982,-0.7095340406254691,65,87.45502851974747
3,9.82982982982983,-0.7382229517274832,65,87.45502851974747
3,9.83983983983984,-0.7641743215637441,65,87.45502851974747
3,9.84984984984985,-0.7692967036602589,65,87.45502851974747
3,9.85985985985986,-0.7693530155288526,65,87.45502851974747
3,9.86986986986987,-0.7763427461644586,65,87.45502851974747
3,9.87987987987988,-0.7656699858065185,65,87.45502851974747
3,9.88988988988989,-0.746202793490838,65,87.45502851974747
3,9.8998998998999,-0.7052096510819795,65,87.45502851974747
3,9.90990990990991,-0.6749430478589575,65,87.45502851974747
3,9.91991991991992,-0.6278697087866973,65,87.45502851974747
3,9.92992992992993,-0.5567369470119508,65,87.45502851974747
3,9.93993993993994,-0.4996934512486222,65,87.45502851974747
3,9.94994994994995,-0.425327181762505,65,87.45502851974747
3,9.95995995995996,-0.3458929951722769,65,87.45502851974747
3,9.96996996996997,-0.2594613306581453,65,87.45502851974747
3,9.97997997997998,-0.1734783680490541,65,87.45502851974747
3,9.98998998998999,-0.0887669729223772,65,87.45502851974747
3,10.0,-0.0032797624470904,65,87.45502851974747
