Subject_ID,Time,PPG,HR,HRV
5,0.0,0.0013610834231106,93,60.70464528671826
5,0.01001001001001,0.092212548828578,93,60.70464528671826
5,0.02002002002002,0.1827967220766322,93,60.70464528671826
5,0.03003003003003,0.2603897064706865,93,60.70464528671826
5,0.04004004004004,0.3434757113908926,93,60.70464528671826
5,0.05005005005005,0.4184539469260624,93,60.70464528671826
5,0.06006006006006,0.4985991282385905,93,60.70464528671826
5,0.07007007007007,0.5643842049691421,93,60.70464528671826
5,0.08008008008008,0.6221673789121861,93,60.70464528671826
5,0.09009009009009,0.6666499942581959,93,60.70464528671826
5,0.1001001001001,0.705057081506269,93,60.70464528671826
5,0.1101101101101101,0.7450929694961437,93,60.70464528671826
5,0.1201201201201201,0.7627493186944645,93,60.70464528671826
5,0.1301301301301301,0.7729442567746271,93,60.70464528671826
5,0.1401401401401401,0.7790427740333247,93,60.70464528671826
5,0.1501501501501501,0.7690960020929849,93,60.70464528671826
5,0.1601601601601601,0.7602460225909277,93,60.70464528671826
5,0.1701701701701701,0.7394328818959969,93,60.70464528671826
5,0.1801801801801801,0.7087030201246302,93,60.70464528671826
5,0.1901901901901901,0.6757558689482688,93,60.70464528671826
5,0.2002002002002001,0.6391368467943471,93,60.70464528671826
5,0.2102102102102102,0.5874837541749263,93,60.70464528671826
5,0.2202202202202202,0.5443200166195367,93,60.70464528671826
5,0.2302302302302302,0.4939991793119642,93,60.70464528671826
5,0.2402402402402402,0.4445343853760766,93,60.70464528671826
5,0.2502502502502503,0.3915893218188881,93,60.70464528671826
5,0.2602602602602603,0.3389341045243569,93,60.70464528671826
5,0.2702702702702703,0.2924989991081683,93,60.70464528671826
5,0.2802802802802803,0.2604500784763526,93,60.70464528671826
5,0.2902902902902903,0.2016773331048834,93,60.70464528671826
5,0.3003003003003003,0.1592882184043676,93,60.70464528671826
5,0.3103103103103103,0.1421480088114804,93,60.70464528671826
5,0.3203203203203203,0.1007249028795264,93,60.70464528671826
5,0.3303303303303303,0.0734334110770209,93,60.70464528671826
5,0.3403403403403403,0.0506203418476342,93,60.70464528671826
5,0.3503503503503503,0.0295648647932411,93,60.70464528671826
5,0.3603603603603603,0.0184256387393741,93,60.70464528671826
5,0.3703703703703703,0.0105534163021314,93,60.70464528671826
5,0.3803803803803803,0.0041519837912616,93,60.70464528671826
5,0.3903903903903903,0.006325045691512,93,60.70464528671826
5,0.4004004004004003,-0.0005054676048221,93,60.70464528671826
5,0.4104104104104104,-0.0039371244338907,93,60.70464528671826
5,0.4204204204204204,-0.0027620287748385,93,60.70464528671826
5,0.4304304304304304,0.0023785099911032,93,60.70464528671826
5,0.4404404404404404,-0.0099227363353534,93,60.70464528671826
5,0.4504504504504504,0.004334373987904,93,60.70464528671826
5,0.4604604604604604,-0.0083301464750754,93,60.70464528671826
5,0.4704704704704704,-0.0237864902737146,93,60.70464528671826
5,0.4804804804804805,-0.0243122052426145,93,60.70464528671826
5,0.4904904904904905,-0.0457863013193302,93,60.70464528671826
5,0.5005005005005005,-0.0723192425668329,93,60.70464528671826
5,0.5105105105105106,-0.0964064856767368,93,60.70464528671826
5,0.5205205205205206,-0.1198468124363921,93,60.70464528671826
5,0.5305305305305306,-0.1532866557706613,93,60.70464528671826
5,0.5405405405405406,-0.1916774955018715,93,60.70464528671826
5,0.5505505505505506,-0.2347934150631903,93,60.70464528671826
5,0.5605605605605606,-0.2813405238129903,93,60.70464528671826
5,0.5705705705705706,-0.3257024623019454,93,60.70464528671826
5,0.5805805805805806,-0.3807228052143475,93,60.70464528671826
5,0.5905905905905906,-0.4376591212660897,93,60.70464528671826
5,0.6006006006006006,-0.4849894295763935,93,60.70464528671826
5,0.6106106106106106,-0.5287297617459398,93,60.70464528671826
5,0.6206206206206206,-0.5852705346218963,93,60.70464528671826
5,0.6306306306306306,-0.620751596418488,93,60.70464528671826
5,0.6406406406406406,-0.6709990723502589,93,60.70464528671826
5,0.6506506506506506,-0.7074419965102229,93,60.70464528671826
5,0.6606606606606606,-0.7289436622359364,93,60.70464528671826
5,0.6706706706706707,-0.7543617976948686,93,60.70464528671826
5,0.6806806806806807,-0.7724982861062116,93,60.70464528671826
5,0.6906906906906907,-0.7796124869988962,93,60.70464528671826
5,0.7007007007007007,-0.7864851467015467,93,60.70464528671826
5,0.7107107107107107,-0.7697296878429409,93,60.70464528671826
5,0.7207207207207207,-0.7426708232228879,93,60.70464528671826
5,0.7307307307307307,-0.7195085512891732,93,60.70464528671826
5,0.7407407407407407,-0.6788736158415991,93,60.70464528671826
5,0.7507507507507507,-0.6294597844109011,93,60.70464528671826
5,0.7607607607607607,-0.5807145354318379,93,60.70464528671826
5,0.7707707707707707,-0.5069875735532543,93,60.70464528671826
5,0.7807807807807807,-0.4543905895547353,93,60.70464528671826
5,0.7907907907907907,-0.3635869576201684,93,60.70464528671826
5,0.8008008008008007,-0.2807530750460368,93,60.70464528671826
5,0.8108108108108109,-0.205277749478736,93,60.70464528671826
5,0.8208208208208209,-0.1098303283049481,93,60.70464528671826
5,0.8308308308308309,-0.0162186515692271,93,60.70464528671826
5,0.8408408408408409,0.0671159137701386,93,60.70464528671826
5,0.8508508508508509,0.1646962182236403,93,60.70464528671826
5,0.8608608608608609,0.2456620039310517,93,60.70464528671826
5,0.8708708708708709,0.3357438805139632,93,60.70464528671826
5,0.8808808808808809,0.4022374860160302,93,60.70464528671826
5,0.8908908908908909,0.4852896488145532,93,60.70464528671826
5,0.9009009009009008,0.5513320124512527,93,60.70464528671826
5,0.9109109109109108,0.5972333303205293,93,60.70464528671826
5,0.9209209209209208,0.6612125030631949,93,60.70464528671826
5,0.9309309309309308,0.6988001988625954,93,60.70464528671826
5,0.9409409409409408,0.735951841262208,93,60.70464528671826
5,0.950950950950951,0.7498938729780018,93,60.70464528671826
5,0.960960960960961,0.7829368209890994,93,60.70464528671826
5,0.970970970970971,0.7718887050037089,93,60.70464528671826
5,0.980980980980981,0.7668104484762669,93,60.70464528671826
5,0.990990990990991,0.7671886854497237,93,60.70464528671826
5,1.001001001001001,0.7462717679494052,93,60.70464528671826
5,1.011011011011011,0.720263533224453,93,60.70464528671826
5,1.021021021021021,0.6844371408902787,93,60.70464528671826
5,1.031031031031031,0.6393049108499383,93,60.70464528671826
5,1.0410410410410411,0.6040105183009243,93,60.70464528671826
5,1.0510510510510511,0.5576324495417907,93,60.70464528671826
5,1.0610610610610611,0.510643991961633,93,60.70464528671826
5,1.0710710710710711,0.4586854638957883,93,60.70464528671826
5,1.0810810810810811,0.3979506258463332,93,60.70464528671826
5,1.0910910910910911,0.3534559025105575,93,60.70464528671826
5,1.1011011011011012,0.3085732563514164,93,60.70464528671826
5,1.1111111111111112,0.258265789568805,93,60.70464528671826
5,1.1211211211211212,0.2103872010598323,93,60.70464528671826
5,1.1311311311311312,0.1683886530694447,93,60.70464528671826
5,1.1411411411411412,0.1357849743604915,93,60.70464528671826
5,1.1511511511511512,0.1069079239749724,93,60.70464528671826
5,1.1611611611611612,0.0753835251590055,93,60.70464528671826
5,1.1711711711711712,0.0579764332944101,93,60.70464528671826
5,1.1811811811811812,0.0520007963762609,93,60.70464528671826
5,1.1911911911911912,0.0318303416031973,93,60.70464528671826
5,1.2012012012012012,0.0183138964374775,93,60.70464528671826
5,1.2112112112112112,0.001948969476344,93,60.70464528671826
5,1.2212212212212212,0.0014190293282209,93,60.70464528671826
5,1.2312312312312312,0.0078005010347718,93,60.70464528671826
5,1.2412412412412412,-0.0019454604825439,93,60.70464528671826
5,1.2512512512512513,-0.0134256503105111,93,60.70464528671826
5,1.2612612612612613,-0.003581353383776,93,60.70464528671826
5,1.2712712712712713,0.0010466856565762,93,60.70464528671826
5,1.2812812812812813,-0.0116863343516703,93,60.70464528671826
5,1.2912912912912913,-0.0100452925269298,93,60.70464528671826
5,1.3013013013013013,-0.022057972911,93,60.70464528671826
5,1.3113113113113113,-0.0361319565032601,93,60.70464528671826
5,1.3213213213213213,-0.0364632323186407,93,60.70464528671826
5,1.3313313313313313,-0.0665175755283699,93,60.70464528671826
5,1.3413413413413413,-0.0780691778042292,93,60.70464528671826
5,1.351351351351351,-0.1187126469478019,93,60.70464528671826
5,1.361361361361361,-0.1539414693870993,93,60.70464528671826
5,1.371371371371371,-0.1808235475173284,93,60.70464528671826
5,1.3813813813813811,-0.2369762569257919,93,60.70464528671826
5,1.3913913913913911,-0.2758389021796588,93,60.70464528671826
5,1.4014014014014011,-0.324164258904592,93,60.70464528671826
5,1.4114114114114114,-0.3656284301403558,93,60.70464528671826
5,1.4214214214214214,-0.4153070360181736,93,60.70464528671826
5,1.4314314314314314,-0.465233267181979,93,60.70464528671826
5,1.4414414414414414,-0.5259955146762142,93,60.70464528671826
5,1.4514514514514514,-0.5647565948567091,93,60.70464528671826
5,1.4614614614614614,-0.6179999023613084,93,60.70464528671826
5,1.4714714714714714,-0.6607937424423599,93,60.70464528671826
5,1.4814814814814814,-0.6911382273410059,93,60.70464528671826
5,1.4914914914914914,-0.724298439412707,93,60.70464528671826
5,1.5015015015015014,-0.7562565172361772,93,60.70464528671826
5,1.5115115115115114,-0.7715141209903388,93,60.70464528671826
5,1.5215215215215214,-0.7705012723503487,93,60.70464528671826
5,1.5315315315315314,-0.774095775095873,93,60.70464528671826
5,1.5415415415415414,-0.7677823588357573,93,60.70464528671826
5,1.5515515515515514,-0.7543947325572442,93,60.70464528671826
5,1.5615615615615617,-0.72972475396772,93,60.70464528671826
5,1.5715715715715717,-0.6957421178106321,93,60.70464528671826
5,1.5815815815815817,-0.6441400492646531,93,60.70464528671826
5,1.5915915915915917,-0.5922531857594241,93,60.70464528671826
5,1.6016016016016017,-0.530944622577643,93,60.70464528671826
5,1.6116116116116117,-0.468810853380359,93,60.70464528671826
5,1.6216216216216215,-0.3904357567183528,93,60.70464528671826
5,1.6316316316316315,-0.3032661335985873,93,60.70464528671826
5,1.6416416416416415,-0.2185956627426589,93,60.70464528671826
5,1.6516516516516515,-0.1339207266655304,93,60.70464528671826
5,1.6616616616616615,-0.0459039556056804,93,60.70464528671826
5,1.6716716716716715,0.0450638265716369,93,60.70464528671826
5,1.6816816816816818,0.1348403675471507,93,60.70464528671826
5,1.6916916916916918,0.2316874612407856,93,60.70464528671826
5,1.7017017017017018,0.3028615184109044,93,60.70464528671826
5,1.7117117117117118,0.3892907445580704,93,60.70464528671826
5,1.7217217217217218,0.464879381990826,93,60.70464528671826
5,1.7317317317317318,0.5285868834203813,93,60.70464528671826
5,1.7417417417417418,0.5898125409132016,93,60.70464528671826
5,1.7517517517517518,0.649622456057338,93,60.70464528671826
5,1.7617617617617618,0.684732923702498,93,60.70464528671826
5,1.7717717717717718,0.7328912239056753,93,60.70464528671826
5,1.7817817817817818,0.7681584277526424,93,60.70464528671826
5,1.7917917917917918,0.7676888853181114,93,60.70464528671826
5,1.8018018018018016,0.7772854442503472,93,60.70464528671826
5,1.811811811811812,0.7836537204114602,93,60.70464528671826
5,1.8218218218218216,0.7692229909387491,93,60.70464528671826
5,1.831831831831832,0.7528491044589163,93,60.70464528671826
5,1.8418418418418416,0.7273320532151168,93,60.70464528671826
5,1.851851851851852,0.686229979693564,93,60.70464528671826
5,1.8618618618618616,0.664966688459774,93,60.70464528671826
5,1.871871871871872,0.6168850629153931,93,60.70464528671826
5,1.8818818818818817,0.5670425721275837,93,60.70464528671826
5,1.891891891891892,0.5260203661301408,93,60.70464528671826
5,1.901901901901902,0.4726262806193567,93,60.70464528671826
5,1.911911911911912,0.4167626904408854,93,60.70464528671826
5,1.921921921921922,0.3727197304338386,93,60.70464528671826
5,1.931931931931932,0.326252264750806,93,60.70464528671826
5,1.941941941941942,0.2703145206094143,93,60.70464528671826
5,1.951951951951952,0.2249478983654223,93,60.70464528671826
5,1.961961961961962,0.1868030691058358,93,60.70464528671826
5,1.971971971971972,0.1521185657761439,93,60.70464528671826
5,1.981981981981982,0.1168666709292016,93,60.70464528671826
5,1.991991991991992,0.0820376730660768,93,60.70464528671826
5,2.002002002002002,0.0629515274018575,93,60.70464528671826
5,2.012012012012012,0.0462676767683559,93,60.70464528671826
5,2.022022022022022,0.0296220310581284,93,60.70464528671826
5,2.032032032032032,0.0209620835041735,93,60.70464528671826
5,2.042042042042042,0.0035094622746655,93,60.70464528671826
5,2.052052052052052,-0.0041145251961938,93,60.70464528671826
5,2.062062062062062,0.0031921596809432,93,60.70464528671826
5,2.072072072072072,-0.0029592654020651,93,60.70464528671826
5,2.0820820820820822,0.0038547103707002,93,60.70464528671826
5,2.092092092092092,-0.0005162973390961,93,60.70464528671826
5,2.1021021021021022,0.0057849029616967,93,60.70464528671826
5,2.112112112112112,0.0027418031397934,93,60.70464528671826
5,2.1221221221221223,-0.0082895373640739,93,60.70464528671826
5,2.1321321321321323,-0.0176692181513111,93,60.70464528671826
5,2.1421421421421423,-0.0254062183448964,93,60.70464528671826
5,2.1521521521521523,-0.0467383953306314,93,60.70464528671826
5,2.1621621621621623,-0.051562122360808,93,60.70464528671826
5,2.1721721721721723,-0.0813209221955812,93,60.70464528671826
5,2.1821821821821823,-0.1154552126559631,93,60.70464528671826
5,2.1921921921921923,-0.1460000442503754,93,60.70464528671826
5,2.2022022022022023,-0.1710104939725358,93,60.70464528671826
5,2.2122122122122123,-0.2258071222278252,93,60.70464528671826
5,2.2222222222222223,-0.2661069108828498,93,60.70464528671826
5,2.2322322322322323,-0.3074242451974344,93,60.70464528671826
5,2.2422422422422423,-0.3460491542341862,93,60.70464528671826
5,2.2522522522522523,-0.4030418887721028,93,60.70464528671826
5,2.2622622622622623,-0.460991269444046,93,60.70464528671826
5,2.2722722722722724,-0.509424719999921,93,60.70464528671826
5,2.2822822822822824,-0.559520231806846,93,60.70464528671826
5,2.2922922922922924,-0.591401675672233,93,60.70464528671826
5,2.3023023023023024,-0.6579179734239525,93,60.70464528671826
5,2.3123123123123124,-0.6818799236864945,93,60.70464528671826
5,2.3223223223223224,-0.7175726049573498,93,60.70464528671826
5,2.3323323323323324,-0.7472722020267688,93,60.70464528671826
5,2.3423423423423424,-0.7565312074210577,93,60.70464528671826
5,2.3523523523523524,-0.7684963424022202,93,60.70464528671826
5,2.3623623623623624,-0.7847861683665626,93,60.70464528671826
5,2.3723723723723724,-0.7747920344276041,93,60.70464528671826
5,2.3823823823823824,-0.7598756158184466,93,60.70464528671826
5,2.3923923923923924,-0.7360833184934319,93,60.70464528671826
5,2.4024024024024024,-0.7096695312768109,93,60.70464528671826
5,2.4124124124124124,-0.657248824898111,93,60.70464528671826
5,2.4224224224224224,-0.6012277573157624,93,60.70464528671826
5,2.4324324324324325,-0.5467089373811146,93,60.70464528671826
5,2.4424424424424425,-0.4740565024023488,93,60.70464528671826
5,2.4524524524524525,-0.4037079638597599,93,60.70464528671826
5,2.4624624624624625,-0.3357072234171898,93,60.70464528671826
5,2.4724724724724725,-0.2394985099556988,93,60.70464528671826
5,2.4824824824824825,-0.1468900723511608,93,60.70464528671826
5,2.4924924924924925,-0.0745085087297757,93,60.70464528671826
5,2.5025025025025025,0.027384556718474,93,60.70464528671826
5,2.5125125125125125,0.1087699442195186,93,60.70464528671826
5,2.5225225225225225,0.1983483314455649,93,60.70464528671826
5,2.5325325325325325,0.2851147881019148,93,60.70464528671826
5,2.5425425425425425,0.3657032711545319,93,60.70464528671826
5,2.5525525525525525,0.4377175072280982,93,60.70464528671826
5,2.5625625625625625,0.5069446293800913,93,60.70464528671826
5,2.5725725725725725,0.5785632148029013,93,60.70464528671826
5,2.5825825825825826,0.6296052882629211,93,60.70464528671826
5,2.592592592592593,0.6864386812249882,93,60.70464528671826
5,2.6026026026026026,0.7188049969595641,93,60.70464528671826
5,2.612612612612613,0.7499658576480344,93,60.70464528671826
5,2.6226226226226226,0.7671779865307556,93,60.70464528671826
5,2.6326326326326326,0.7768231271871583,93,60.70464528671826
5,2.6426426426426426,0.7787625494782981,93,60.70464528671826
5,2.6526526526526526,0.7683979935045934,93,60.70464528671826
5,2.6626626626626626,0.7584157219377882,93,60.70464528671826
5,2.6726726726726726,0.7377021795839538,93,60.70464528671826
5,2.6826826826826826,0.7029033867642652,93,60.70464528671826
5,2.6926926926926926,0.6667753264119834,93,60.70464528671826
5,2.702702702702702,0.6243228398403337,93,60.70464528671826
5,2.7127127127127126,0.5738615114782006,93,60.70464528671826
5,2.722722722722722,0.5264147525292673,93,60.70464528671826
5,2.7327327327327327,0.4797420496800922,93,60.70464528671826
5,2.7427427427427427,0.4311330558520589,93,60.70464528671826
5,2.7527527527527527,0.376730269683654,93,60.70464528671826
5,2.7627627627627627,0.3325004332364339,93,60.70464528671826
5,2.7727727727727727,0.2852837826665421,93,60.70464528671826
5,2.7827827827827827,0.2295043773768385,93,60.70464528671826
5,2.7927927927927927,0.1973304245411336,93,60.70464528671826
5,2.8028028028028027,0.162943384135578,93,60.70464528671826
5,2.8128128128128127,0.1148755306870526,93,60.70464528671826
5,2.8228228228228227,0.096348546271892,93,60.70464528671826
5,2.8328328328328327,0.0753613247927678,93,60.70464528671826
5,2.8428428428428427,0.0445772520267685,93,60.70464528671826
5,2.8528528528528527,0.0242274634854025,93,60.70464528671826
5,2.8628628628628627,0.0288254728781464,93,60.70464528671826
5,2.8728728728728727,0.003865845376432,93,60.70464528671826
5,2.8828828828828827,0.0042552744077597,93,60.70464528671826
5,2.8928928928928928,0.0113878164943817,93,60.70464528671826
5,2.9029029029029028,0.0044171928279433,93,60.70464528671826
5,2.9129129129129128,-0.0005197021385777,93,60.70464528671826
5,2.9229229229229228,-0.005537056900842,93,60.70464528671826
5,2.932932932932933,-0.0002831068717037,93,60.70464528671826
5,2.942942942942943,-0.002483513129334,93,60.70464528671826
5,2.952952952952953,-0.0038124259110098,93,60.70464528671826
5,2.962962962962963,-0.0165755264900646,93,60.70464528671826
5,2.972972972972973,-0.0300745978591109,93,60.70464528671826
5,2.982982982982983,-0.0286646428895136,93,60.70464528671826
5,2.992992992992993,-0.0547360423493668,93,60.70464528671826
5,3.003003003003003,-0.0784404320762301,93,60.70464528671826
5,3.013013013013013,-0.1068455241288733,93,60.70464528671826
5,3.023023023023023,-0.1343573609239032,93,60.70464528671826
5,3.033033033033033,-0.1715571317321553,93,60.70464528671826
5,3.043043043043043,-0.2070313004823697,93,60.70464528671826
5,3.053053053053053,-0.252096200704213,93,60.70464528671826
5,3.063063063063063,-0.2887471452488443,93,60.70464528671826
5,3.073073073073073,-0.3388202992560753,93,60.70464528671826
5,3.083083083083083,-0.391021363949886,93,60.70464528671826
5,3.093093093093093,-0.4486841412433707,93,60.70464528671826
5,3.103103103103103,-0.4842881069239285,93,60.70464528671826
5,3.113113113113113,-0.5464590135940691,93,60.70464528671826
5,3.123123123123123,-0.5884652337536871,93,60.70464528671826
5,3.133133133133133,-0.6339076091499928,93,60.70464528671826
5,3.143143143143143,-0.6846485786727249,93,60.70464528671826
5,3.153153153153153,-0.7114644021505463,93,60.70464528671826
5,3.163163163163163,-0.7359407022471195,93,60.70464528671826
5,3.173173173173173,-0.7550501102640477,93,60.70464528671826
5,3.183183183183183,-0.7669595109715445,93,60.70464528671826
5,3.193193193193193,-0.7791634399543041,93,60.70464528671826
5,3.203203203203203,-0.7805982600699177,93,60.70464528671826
5,3.2132132132132134,-0.7656391425030008,93,60.70464528671826
5,3.2232232232232234,-0.7417024810170747,93,60.70464528671826
5,3.2332332332332334,-0.7101810291355876,93,60.70464528671826
5,3.2432432432432434,-0.6745923974801032,93,60.70464528671826
5,3.253253253253253,-0.6181748443089966,93,60.70464528671826
5,3.2632632632632634,-0.5628019179965728,93,60.70464528671826
5,3.273273273273273,-0.5023425707426151,93,60.70464528671826
5,3.2832832832832834,-0.4297029605849343,93,60.70464528671826
5,3.293293293293293,-0.3532495434204543,93,60.70464528671826
5,3.3033033033033035,-0.2607801272124412,93,60.70464528671826
5,3.313313313313313,-0.1795317236707554,93,60.70464528671826
5,3.3233233233233235,-0.0963838451570526,93,60.70464528671826
5,3.333333333333333,-0.0060850211727793,93,60.70464528671826
5,3.3433433433433435,0.0945395627359037,93,60.70464528671826
5,3.353353353353353,0.1802261935704682,93,60.70464528671826
5,3.3633633633633635,0.2608937181350493,93,60.70464528671826
5,3.373373373373373,0.354884301761077,93,60.70464528671826
5,3.3833833833833835,0.4275028728929796,93,60.70464528671826
5,3.393393393393393,0.4994894038399938,93,60.70464528671826
5,3.4034034034034035,0.5612377977208535,93,60.70464528671826
5,3.413413413413413,0.6266910878263241,93,60.70464528671826
5,3.4234234234234235,0.6669736261300755,93,60.70464528671826
5,3.433433433433433,0.7123064391425683,93,60.70464528671826
5,3.443443443443444,0.7475870851494482,93,60.70464528671826
5,3.4534534534534536,0.7669996167418998,93,60.70464528671826
5,3.463463463463464,0.7715456683780042,93,60.70464528671826
5,3.4734734734734736,0.7829674282131938,93,60.70464528671826
5,3.483483483483484,0.7793479460729018,93,60.70464528671826
5,3.4934934934934936,0.7649170157903528,93,60.70464528671826
5,3.503503503503504,0.7422474568003348,93,60.70464528671826
5,3.5135135135135136,0.7021801129536326,93,60.70464528671826
5,3.523523523523524,0.667122453935194,93,60.70464528671826
5,3.5335335335335336,0.6294682593908736,93,60.70464528671826
5,3.543543543543544,0.5906375452764412,93,60.70464528671826
5,3.5535535535535536,0.5393239107221897,93,60.70464528671826
5,3.563563563563564,0.4916388531414296,93,60.70464528671826
5,3.5735735735735736,0.4321717421963206,93,60.70464528671826
5,3.583583583583584,0.3923257838754659,93,60.70464528671826
5,3.5935935935935936,0.3413217211888018,93,60.70464528671826
5,3.603603603603604,0.2851131202971356,93,60.70464528671826
5,3.6136136136136137,0.2502021755733281,93,60.70464528671826
5,3.623623623623624,0.1953557765073702,93,60.70464528671826
5,3.6336336336336337,0.167666535360825,93,60.70464528671826
5,3.643643643643644,0.1370424383122435,93,60.70464528671826
5,3.6536536536536537,0.1063851530090495,93,60.70464528671826
5,3.663663663663664,0.0768507149283608,93,60.70464528671826
5,3.6736736736736737,0.0559978961245747,93,60.70464528671826
5,3.683683683683684,0.0359194381352415,93,60.70464528671826
5,3.6936936936936937,0.0169810740104765,93,60.70464528671826
5,3.703703703703704,0.0174877840817507,93,60.70464528671826
5,3.7137137137137137,0.0101212970612863,93,60.70464528671826
5,3.723723723723724,0.0034095487871527,93,60.70464528671826
5,3.7337337337337337,-0.003565748596071,93,60.70464528671826
5,3.743743743743744,-0.0026764183422774,93,60.70464528671826
5,3.7537537537537538,-0.005565578879988,93,60.70464528671826
5,3.763763763763764,0.0032252143980275,93,60.70464528671826
5,3.7737737737737738,-0.0034372835872639,93,60.70464528671826
5,3.783783783783784,0.0010416549670497,93,60.70464528671826
5,3.793793793793794,-0.0042853705747077,93,60.70464528671826
5,3.803803803803804,-0.0166896890559731,93,60.70464528671826
5,3.813813813813814,-0.0312115540216221,93,60.70464528671826
5,3.823823823823824,-0.0464560183998331,93,60.70464528671826
5,3.833833833833834,-0.0661800565203686,93,60.70464528671826
5,3.843843843843844,-0.0837647253167713,93,60.70464528671826
5,3.853853853853854,-0.1267828076115321,93,60.70464528671826
5,3.863863863863864,-0.1627560150814701,93,60.70464528671826
5,3.873873873873874,-0.2037360541151825,93,60.70464528671826
5,3.883883883883884,-0.236597139504805,93,60.70464528671826
5,3.893893893893894,-0.2873510578379027,93,60.70464528671826
5,3.903903903903904,-0.3326780744009476,93,60.70464528671826
5,3.913913913913914,-0.3861627089136288,93,60.70464528671826
5,3.923923923923924,-0.4337015374483316,93,60.70464528671826
5,3.933933933933934,-0.4839508890403699,93,60.70464528671826
5,3.943943943943944,-0.5362248097623076,93,60.70464528671826
5,3.953953953953954,-0.5714372241703991,93,60.70464528671826
5,3.963963963963964,-0.6280111935002182,93,60.70464528671826
5,3.973973973973974,-0.6658597329116543,93,60.70464528671826
5,3.983983983983984,-0.6944070320693917,93,60.70464528671826
5,3.993993993993994,-0.7277865527893385,93,60.70464528671826
5,4.004004004004004,-0.746731672759667,93,60.70464528671826
5,4.014014014014014,-0.7757862180332771,93,60.70464528671826
5,4.024024024024024,-0.7686660212088667,93,60.70464528671826
5,4.034034034034034,-0.7872100649967818,93,60.70464528671826
5,4.044044044044044,-0.7704997752140439,93,60.70464528671826
5,4.054054054054054,-0.7474682668434259,93,60.70464528671826
5,4.064064064064064,-0.7249707842048541,93,60.70464528671826
5,4.074074074074074,-0.6791889951669151,93,60.70464528671826
5,4.084084084084084,-0.640033357993756,93,60.70464528671826
5,4.094094094094094,-0.5744726123479352,93,60.70464528671826
5,4.104104104104104,-0.5085764607519269,93,60.70464528671826
5,4.114114114114114,-0.4442909778500243,93,60.70464528671826
5,4.124124124124124,-0.3740310922567657,93,60.70464528671826
5,4.134134134134134,-0.2927047792029397,93,60.70464528671826
5,4.144144144144144,-0.2019989632509082,93,60.70464528671826
5,4.1541541541541545,-0.1083513479943885,93,60.70464528671826
5,4.1641641641641645,-0.0194731246034358,93,60.70464528671826
5,4.174174174174175,0.0699104193862572,93,60.70464528671826
5,4.1841841841841845,0.1562217723986692,93,60.70464528671826
5,4.1941941941941945,0.2372594937458262,93,60.70464528671826
5,4.2042042042042045,0.3426971910193683,93,60.70464528671826
5,4.214214214214215,0.4018012582817846,93,60.70464528671826
5,4.2242242242242245,0.4741302350689306,93,60.70464528671826
5,4.2342342342342345,0.5518307320368577,93,60.70464528671826
5,4.2442442442442445,0.6055400807091474,93,60.70464528671826
5,4.254254254254255,0.6642070505945081,93,60.70464528671826
5,4.2642642642642645,0.6973662953080295,93,60.70464528671826
5,4.2742742742742745,0.7352732408789754,93,60.70464528671826
5,4.2842842842842845,0.7589240912690178,93,60.70464528671826
5,4.294294294294295,0.7670422025323265,93,60.70464528671826
5,4.3043043043043046,0.7769748914625041,93,60.70464528671826
5,4.314314314314315,0.7770786120868979,93,60.70464528671826
5,4.324324324324325,0.7722749619615896,93,60.70464528671826
5,4.334334334334335,0.7419045256242566,93,60.70464528671826
5,4.344344344344345,0.7196894576284946,93,60.70464528671826
5,4.354354354354355,0.6804751867697787,93,60.70464528671826
5,4.364364364364365,0.6479939814392964,93,60.70464528671826
5,4.374374374374375,0.6071957153289951,93,60.70464528671826
5,4.384384384384385,0.550963044747841,93,60.70464528671826
5,4.394394394394395,0.4991393451143985,93,60.70464528671826
5,4.404404404404405,0.4592255061350478,93,60.70464528671826
5,4.414414414414415,0.4007431977406664,93,60.70464528671826
5,4.424424424424425,0.3551210991194762,93,60.70464528671826
5,4.434434434434435,0.3055635242698625,93,60.70464528671826
5,4.444444444444445,0.2551948364084113,93,60.70464528671826
5,4.454454454454455,0.2132581981363621,93,60.70464528671826
5,4.464464464464465,0.1738640829415461,93,60.70464528671826
5,4.474474474474475,0.1427050202025175,93,60.70464528671826
5,4.484484484484485,0.105613208310172,93,60.70464528671826
5,4.494494494494495,0.0808154042525446,93,60.70464528671826
5,4.504504504504505,0.0562954940560959,93,60.70464528671826
5,4.514514514514515,0.0343720144697337,93,60.70464528671826
5,4.524524524524525,0.0250001731717223,93,60.70464528671826
5,4.534534534534535,0.0211983097987658,93,60.70464528671826
5,4.544544544544545,0.0020658844876761,93,60.70464528671826
5,4.554554554554555,-0.0014415060756881,93,60.70464528671826
5,4.564564564564565,0.0062809578188613,93,60.70464528671826
5,4.574574574574575,0.0052941149529804,93,60.70464528671826
5,4.584584584584585,0.0018756128615299,93,60.70464528671826
5,4.594594594594595,-0.0096438542894102,93,60.70464528671826
5,4.604604604604605,0.0002362706855293,93,60.70464528671826
5,4.614614614614615,0.002031327620643,93,60.70464528671826
5,4.624624624624625,-0.0088990212897131,93,60.70464528671826
5,4.634634634634635,-0.0173823345108973,93,60.70464528671826
5,4.644644644644645,-0.0277580513254776,93,60.70464528671826
5,4.654654654654655,-0.0460605386558352,93,60.70464528671826
5,4.664664664664665,-0.0635895482162854,93,60.70464528671826
5,4.674674674674675,-0.0757371520423659,93,60.70464528671826
5,4.684684684684685,-0.1116884541168011,93,60.70464528671826
5,4.694694694694695,-0.1420370253859582,93,60.70464528671826
5,4.704704704704705,-0.1911015882994806,93,60.70464528671826
5,4.714714714714715,-0.2311126699417919,93,60.70464528671826
5,4.724724724724725,-0.2758027152001382,93,60.70464528671826
5,4.734734734734735,-0.3195477966562173,93,60.70464528671826
5,4.744744744744745,-0.3666223528680947,93,60.70464528671826
5,4.754754754754755,-0.4144563862871745,93,60.70464528671826
5,4.764764764764765,-0.4698070332151137,93,60.70464528671826
5,4.774774774774775,-0.5126371305416163,93,60.70464528671826
5,4.784784784784785,-0.562829892028802,93,60.70464528671826
5,4.794794794794795,-0.6169650658189613,93,60.70464528671826
5,4.804804804804805,-0.6573783098668626,93,60.70464528671826
5,4.814814814814815,-0.6930791461521475,93,60.70464528671826
5,4.824824824824825,-0.729235913711774,93,60.70464528671826
5,4.834834834834835,-0.7440482119758406,93,60.70464528671826
5,4.844844844844845,-0.7709873681082168,93,60.70464528671826
5,4.854854854854855,-0.7781073588967066,93,60.70464528671826
5,4.864864864864865,-0.7699805786120412,93,60.70464528671826
5,4.874874874874875,-0.7796306018396792,93,60.70464528671826
5,4.884884884884885,-0.7583130772611247,93,60.70464528671826
5,4.894894894894895,-0.7341581998453991,93,60.70464528671826
5,4.904904904904905,-0.6960535696624321,93,60.70464528671826
5,4.914914914914915,-0.63482407803217,93,60.70464528671826
5,4.924924924924925,-0.5927594182898314,93,60.70464528671826
5,4.934934934934935,-0.5340008888150144,93,60.70464528671826
5,4.944944944944945,-0.4672858908668607,93,60.70464528671826
5,4.954954954954955,-0.3972940168387971,93,60.70464528671826
5,4.964964964964965,-0.3098459286537249,93,60.70464528671826
5,4.974974974974975,-0.2236330407205602,93,60.70464528671826
5,4.984984984984985,-0.1407411827150175,93,60.70464528671826
5,4.994994994994995,-0.0485271213772621,93,60.70464528671826
5,5.005005005005005,0.0491396638823886,93,60.70464528671826
5,5.015015015015015,0.1398749788137575,93,60.70464528671826
5,5.025025025025025,0.2250992456721921,93,60.70464528671826
5,5.035035035035035,0.3124401778871878,93,60.70464528671826
5,5.045045045045045,0.3943471857306649,93,60.70464528671826
5,5.055055055055055,0.4607458156783331,93,60.70464528671826
5,5.065065065065065,0.5375201665295734,93,60.70464528671826
5,5.075075075075075,0.6042805454924479,93,60.70464528671826
5,5.085085085085085,0.6481005487331323,93,60.70464528671826
5,5.095095095095095,0.6914492908417913,93,60.70464528671826
5,5.105105105105105,0.7187589707309934,93,60.70464528671826
5,5.115115115115115,0.7532394598502409,93,60.70464528671826
5,5.125125125125125,0.7670302456428268,93,60.70464528671826
5,5.135135135135135,0.7773911528628358,93,60.70464528671826
5,5.145145145145145,0.7791072573030674,93,60.70464528671826
5,5.155155155155155,0.7647674587826678,93,60.70464528671826
5,5.165165165165165,0.7589281615185509,93,60.70464528671826
5,5.175175175175175,0.7241874105444365,93,60.70464528671826
5,5.185185185185185,0.6908160465784975,93,60.70464528671826
5,5.195195195195195,0.6541745443130595,93,60.70464528671826
5,5.205205205205205,0.6265076357551956,93,60.70464528671826
5,5.215215215215215,0.5636464616373578,93,60.70464528671826
5,5.225225225225225,0.5246536569229769,93,60.70464528671826
5,5.235235235235235,0.46935921492366,93,60.70464528671826
5,5.245245245245245,0.4116054455051054,93,60.70464528671826
5,5.255255255255255,0.3606655911796646,93,60.70464528671826
5,5.265265265265265,0.313295854634582,93,60.70464528671826
5,5.275275275275275,0.2749057874295642,93,60.70464528671826
5,5.285285285285285,0.2288444622309848,93,60.70464528671826
5,5.295295295295295,0.1863619486761669,93,60.70464528671826
5,5.305305305305305,0.14508830562922,93,60.70464528671826
5,5.315315315315315,0.1215867370484411,93,60.70464528671826
5,5.325325325325325,0.0801449826053154,93,60.70464528671826
5,5.335335335335335,0.0575174375844347,93,60.70464528671826
5,5.345345345345345,0.0356673789868038,93,60.70464528671826
5,5.355355355355355,0.0281437552782005,93,60.70464528671826
5,5.365365365365365,0.0116422054902012,93,60.70464528671826
5,5.375375375375375,0.003451966235947,93,60.70464528671826
5,5.385385385385385,0.0051815326843397,93,60.70464528671826
5,5.395395395395395,0.0056571249416176,93,60.70464528671826
5,5.405405405405405,-0.0039834213597405,93,60.70464528671826
5,5.415415415415415,0.008413626913961,93,60.70464528671826
5,5.425425425425425,0.0048352171509839,93,60.70464528671826
5,5.435435435435435,-0.0024030976110267,93,60.70464528671826
5,5.445445445445445,-0.0025497047564419,93,60.70464528671826
5,5.455455455455455,-0.0038440323761817,93,60.70464528671826
5,5.465465465465465,-0.0138414079933153,93,60.70464528671826
5,5.475475475475475,-0.0252323622464231,93,60.70464528671826
5,5.485485485485485,-0.0439911420572344,93,60.70464528671826
5,5.495495495495495,-0.0518779084135846,93,60.70464528671826
5,5.505505505505505,-0.0853499237650685,93,60.70464528671826
5,5.515515515515515,-0.1033506495472322,93,60.70464528671826
5,5.525525525525525,-0.1428775578533426,93,60.70464528671826
5,5.535535535535535,-0.1721459785331469,93,60.70464528671826
5,5.545545545545545,-0.2086951777828804,93,60.70464528671826
5,5.555555555555555,-0.2561860787457338,93,60.70464528671826
5,5.565565565565565,-0.3055869821351366,93,60.70464528671826
5,5.575575575575575,-0.3455921818484538,93,60.70464528671826
5,5.585585585585585,-0.407849277995666,93,60.70464528671826
5,5.595595595595595,-0.4511330101015239,93,60.70464528671826
5,5.605605605605605,-0.5150554530537408,93,60.70464528671826
5,5.615615615615615,-0.5562205264220892,93,60.70464528671826
5,5.625625625625625,-0.6007649212964508,93,60.70464528671826
5,5.635635635635635,-0.6430864975923506,93,60.70464528671826
5,5.645645645645645,-0.6843084923624659,93,60.70464528671826
5,5.655655655655655,-0.7199934615668925,93,60.70464528671826
5,5.665665665665665,-0.7492534668633493,93,60.70464528671826
5,5.675675675675675,-0.7687908441439467,93,60.70464528671826
5,5.685685685685685,-0.7810091127772946,93,60.70464528671826
5,5.695695695695696,-0.7775196316421271,93,60.70464528671826
5,5.7057057057057055,-0.7663769940848983,93,60.70464528671826
5,5.715715715715716,-0.7608603460839948,93,60.70464528671826
5,5.7257257257257255,-0.7307619356808673,93,60.70464528671826
5,5.735735735735736,-0.7007841895307843,93,60.70464528671826
5,5.7457457457457455,-0.659217861224676,93,60.70464528671826
5,5.755755755755756,-0.5990491477816311,93,60.70464528671826
5,5.7657657657657655,-0.5476849432912462,93,60.70464528671826
5,5.775775775775776,-0.4817272804600022,93,60.70464528671826
5,5.7857857857857855,-0.4102281763259805,93,60.70464528671826
5,5.795795795795796,-0.323206956738352,93,60.70464528671826
5,5.8058058058058055,-0.2526227620013028,93,60.70464528671826
5,5.815815815815816,-0.1604560299018644,93,60.70464528671826
5,5.8258258258258255,-0.0713296592833107,93,60.70464528671826
5,5.835835835835836,0.0257604507574448,93,60.70464528671826
5,5.8458458458458455,0.1179501803844282,93,60.70464528671826
5,5.855855855855856,0.2025053074046788,93,60.70464528671826
5,5.865865865865866,0.289558232227186,93,60.70464528671826
5,5.875875875875876,0.360021204576301,93,60.70464528671826
5,5.885885885885886,0.4405584326690646,93,60.70464528671826
5,5.895895895895896,0.5187724329590772,93,60.70464528671826
5,5.905905905905906,0.5772371888623217,93,60.70464528671826
5,5.915915915915916,0.6344711000038319,93,60.70464528671826
5,5.925925925925926,0.6810670015839095,93,60.70464528671826
5,5.935935935935936,0.7166146528705866,93,60.70464528671826
5,5.945945945945946,0.7475871978010769,93,60.70464528671826
5,5.955955955955956,0.7729892943987414,93,60.70464528671826
5,5.965965965965966,0.7713995928045668,93,60.70464528671826
5,5.975975975975976,0.7733464790813971,93,60.70464528671826
5,5.985985985985986,0.7684092822091972,93,60.70464528671826
5,5.995995995995996,0.7608620592727555,93,60.70464528671826
5,6.006006006006006,0.7244249786554056,93,60.70464528671826
5,6.016016016016016,0.7012752323899498,93,60.70464528671826
5,6.026026026026026,0.6686075918973483,93,60.70464528671826
5,6.036036036036036,0.6224932842866139,93,60.70464528671826
5,6.046046046046046,0.5783503801480554,93,60.70464528671826
5,6.056056056056056,0.5436095393246425,93,60.70464528671826
5,6.066066066066066,0.4892825877749667,93,60.70464528671826
5,6.076076076076076,0.4387361510901723,93,60.70464528671826
5,6.086086086086086,0.3793360669650077,93,60.70464528671826
5,6.096096096096096,0.3313889419599347,93,60.70464528671826
5,6.106106106106106,0.2739604174763845,93,60.70464528671826
5,6.116116116116116,0.2451939187928064,93,60.70464528671826
5,6.126126126126126,0.1866326045008465,93,60.70464528671826
5,6.136136136136136,0.1580045854744463,93,60.70464528671826
5,6.146146146146146,0.1222658345624416,93,60.70464528671826
5,6.156156156156156,0.1048876208775146,93,60.70464528671826
5,6.166166166166166,0.0705827291006016,93,60.70464528671826
5,6.176176176176176,0.051897981704505,93,60.70464528671826
5,6.186186186186186,0.0299300008661305,93,60.70464528671826
5,6.196196196196196,0.0255717403085464,93,60.70464528671826
5,6.206206206206206,0.0091259578812623,93,60.70464528671826
5,6.216216216216216,-0.0058443027923416,93,60.70464528671826
5,6.226226226226226,6.72840358812393e-05,93,60.70464528671826
5,6.236236236236236,0.006885054728082,93,60.70464528671826
5,6.246246246246246,-0.0006678047417096,93,60.70464528671826
5,6.256256256256256,0.0067176949211101,93,60.70464528671826
5,6.266266266266266,-0.009025110480562,93,60.70464528671826
5,6.276276276276276,-0.0017198112496902,93,60.70464528671826
5,6.286286286286286,-0.0086233674615372,93,60.70464528671826
5,6.296296296296296,0.0009868476895838,93,60.70464528671826
5,6.306306306306306,-0.0195669782554995,93,60.70464528671826
5,6.316316316316316,-0.0467132460781392,93,60.70464528671826
5,6.326326326326326,-0.0542362608252939,93,60.70464528671826
5,6.336336336336336,-0.0778512128324172,93,60.70464528671826
5,6.346346346346346,-0.0927214765575965,93,60.70464528671826
5,6.356356356356356,-0.1305228270398992,93,60.70464528671826
5,6.366366366366366,-0.164551107034036,93,60.70464528671826
5,6.376376376376376,-0.2024927815349383,93,60.70464528671826
5,6.386386386386386,-0.2470170895492974,93,60.70464528671826
5,6.396396396396396,-0.2930563036837988,93,60.70464528671826
5,6.406406406406406,-0.350554332870092,93,60.70464528671826
5,6.416416416416417,-0.3999552216278276,93,60.70464528671826
5,6.426426426426427,-0.4449141126166707,93,60.70464528671826
5,6.436436436436437,-0.4959792838392622,93,60.70464528671826
5,6.446446446446447,-0.541420928517324,93,60.70464528671826
5,6.456456456456457,-0.5945395792672363,93,60.70464528671826
5,6.466466466466467,-0.631960598123721,93,60.70464528671826
5,6.476476476476477,-0.677562369179228,93,60.70464528671826
5,6.486486486486487,-0.7141318504404771,93,60.70464528671826
5,6.496496496496497,-0.7350861667746471,93,60.70464528671826
5,6.506506506506507,-0.7618795284801937,93,60.70464528671826
5,6.516516516516517,-0.7735737263395774,93,60.70464528671826
5,6.526526526526527,-0.7857856795836707,93,60.70464528671826
5,6.536536536536537,-0.7791769960011335,93,60.70464528671826
5,6.546546546546547,-0.7561283827981276,93,60.70464528671826
5,6.556556556556557,-0.7440622701418663,93,60.70464528671826
5,6.566566566566567,-0.7247420924528319,93,60.70464528671826
5,6.576576576576577,-0.6811129640130741,93,60.70464528671826
5,6.586586586586587,-0.6199752098392678,93,60.70464528671826
5,6.596596596596597,-0.5653783928694912,93,60.70464528671826
5,6.606606606606607,-0.495029785826503,93,60.70464528671826
5,6.616616616616617,-0.4221303010980927,93,60.70464528671826
5,6.626626626626627,-0.3549627700699156,93,60.70464528671826
5,6.636636636636637,-0.2670583747507736,93,60.70464528671826
5,6.646646646646647,-0.1873182907530946,93,60.70464528671826
5,6.656656656656657,-0.0774129329236605,93,60.70464528671826
5,6.666666666666667,-0.0052917717477418,93,60.70464528671826
5,6.676676676676677,0.0869889456455328,93,60.70464528671826
5,6.686686686686687,0.1746407999180923,93,60.70464528671826
5,6.696696696696697,0.277310023453256,93,60.70464528671826
5,6.706706706706707,0.3438079790068664,93,60.70464528671826
5,6.716716716716717,0.4243924800459037,93,60.70464528671826
5,6.726726726726727,0.4962598610037712,93,60.70464528671826
5,6.736736736736737,0.5738099714231131,93,60.70464528671826
5,6.746746746746747,0.6241341984730496,93,60.70464528671826
5,6.756756756756757,0.6752013705049275,93,60.70464528671826
5,6.766766766766767,0.7042086386473762,93,60.70464528671826
5,6.776776776776777,0.7391599540581201,93,60.70464528671826
5,6.786786786786787,0.7644582245004228,93,60.70464528671826
5,6.796796796796797,0.7682694362832119,93,60.70464528671826
5,6.806806806806807,0.7743212752214611,93,60.70464528671826
5,6.816816816816817,0.7695062304013892,93,60.70464528671826
5,6.826826826826827,0.7629207042668421,93,60.70464528671826
5,6.836836836836837,0.7418118781970496,93,60.70464528671826
5,6.846846846846847,0.7129796719166418,93,60.70464528671826
5,6.856856856856857,0.6740941439997746,93,60.70464528671826
5,6.866866866866867,0.6337509466579012,93,60.70464528671826
5,6.876876876876877,0.5944911132476732,93,60.70464528671826
5,6.886886886886887,0.5516075128622261,93,60.70464528671826
5,6.896896896896897,0.490633259189008,93,60.70464528671826
5,6.906906906906907,0.4427433944833913,93,60.70464528671826
5,6.916916916916917,0.401504971086462,93,60.70464528671826
5,6.926926926926927,0.3327552918405345,93,60.70464528671826
5,6.936936936936937,0.3089354626791535,93,60.70464528671826
5,6.946946946946947,0.2523534977591568,93,60.70464528671826
5,6.956956956956957,0.1980999250323166,93,60.70464528671826
5,6.966966966966967,0.1625039144944842,93,60.70464528671826
5,6.976976976976977,0.1279456667822994,93,60.70464528671826
5,6.986986986986987,0.1013014096874947,93,60.70464528671826
5,6.996996996996997,0.0811460291485081,93,60.70464528671826
5,7.007007007007007,0.0473410575358766,93,60.70464528671826
5,7.017017017017017,0.0322512852765137,93,60.70464528671826
5,7.027027027027027,0.0208666058697114,93,60.70464528671826
5,7.037037037037037,0.006407286864956,93,60.70464528671826
5,7.047047047047047,-0.0036288285179727,93,60.70464528671826
5,7.057057057057057,-0.0030409553759089,93,60.70464528671826
5,7.067067067067067,0.0033646294508817,93,60.70464528671826
5,7.077077077077077,0.0013975982089076,93,60.70464528671826
5,7.087087087087087,0.0007509238423234,93,60.70464528671826
5,7.097097097097097,-0.0013695983042298,93,60.70464528671826
5,7.107107107107107,0.0068025612566498,93,60.70464528671826
5,7.117117117117117,-0.0060944912437446,93,60.70464528671826
5,7.127127127127127,-0.0121853673904639,93,60.70464528671826
5,7.137137137137137,-0.0061377491424786,93,60.70464528671826
5,7.147147147147147,-0.0243021814580285,93,60.70464528671826
5,7.157157157157157,-0.0429498281613648,93,60.70464528671826
5,7.167167167167167,-0.0649335868032637,93,60.70464528671826
5,7.177177177177177,-0.0887040936846213,93,60.70464528671826
5,7.187187187187187,-0.1209554491057296,93,60.70464528671826
5,7.197197197197197,-0.1596438236746997,93,60.70464528671826
5,7.207207207207207,-0.1959688510672729,93,60.70464528671826
5,7.217217217217217,-0.2389817711314686,93,60.70464528671826
5,7.227227227227227,-0.2902180843504184,93,60.70464528671826
5,7.237237237237237,-0.3318361704126083,93,60.70464528671826
5,7.247247247247247,-0.3783144150713559,93,60.70464528671826
5,7.257257257257257,-0.4332384137843163,93,60.70464528671826
5,7.267267267267267,-0.4825943879710313,93,60.70464528671826
5,7.277277277277277,-0.53308711444159,93,60.70464528671826
5,7.287287287287287,-0.5798105431867306,93,60.70464528671826
5,7.297297297297297,-0.6287666108978659,93,60.70464528671826
5,7.307307307307307,-0.6689414851610958,93,60.70464528671826
5,7.317317317317317,-0.7075554711541548,93,60.70464528671826
5,7.327327327327327,-0.730248345991857,93,60.70464528671826
5,7.337337337337337,-0.7573389654974398,93,60.70464528671826
5,7.347347347347347,-0.778538673098098,93,60.70464528671826
5,7.357357357357357,-0.7674578145582006,93,60.70464528671826
5,7.367367367367367,-0.7698238637548279,93,60.70464528671826
5,7.377377377377377,-0.7659468936707933,93,60.70464528671826
5,7.387387387387387,-0.7520128540058212,93,60.70464528671826
5,7.397397397397397,-0.7168709374305213,93,60.70464528671826
5,7.407407407407407,-0.6899889163908077,93,60.70464528671826
5,7.4174174174174174,-0.6269902459153771,93,60.70464528671826
5,7.4274274274274275,-0.5891559859056285,93,60.70464528671826
5,7.437437437437437,-0.5109911543458138,93,60.70464528671826
5,7.447447447447447,-0.4395148903227185,93,60.70464528671826
5,7.4574574574574575,-0.3658580662006889,93,60.70464528671826
5,7.4674674674674675,-0.2964419348235738,93,60.70464528671826
5,7.477477477477477,-0.1987985107681344,93,60.70464528671826
5,7.487487487487487,-0.1098622848751686,93,60.70464528671826
5,7.4974974974974975,-0.014630565574577,93,60.70464528671826
5,7.5075075075075075,0.0633357456381729,93,60.70464528671826
5,7.517517517517517,0.1582203037440921,93,60.70464528671826
5,7.527527527527527,0.2434777589302323,93,60.70464528671826
5,7.5375375375375375,0.3347716106326859,93,60.70464528671826
5,7.5475475475475475,0.3997334848955178,93,60.70464528671826
5,7.557557557557557,0.4840728860297227,93,60.70464528671826
5,7.567567567567567,0.5380282608414599,93,60.70464528671826
5,7.5775775775775776,0.6110880227421576,93,60.70464528671826
5,7.587587587587588,0.6726580505675891,93,60.70464528671826
5,7.597597597597598,0.7067028377520294,93,60.70464528671826
5,7.607607607607608,0.7320113610915719,93,60.70464528671826
5,7.617617617617618,0.7590350890619616,93,60.70464528671826
5,7.627627627627628,0.773223644155786,93,60.70464528671826
5,7.637637637637638,0.780750088899001,93,60.70464528671826
5,7.647647647647648,0.7700915379986267,93,60.70464528671826
5,7.657657657657658,0.7623634507063166,93,60.70464528671826
5,7.667667667667668,0.7510297817544318,93,60.70464528671826
5,7.677677677677678,0.7233787094757231,93,60.70464528671826
5,7.687687687687688,0.6765741634820279,93,60.70464528671826
5,7.697697697697698,0.6471621102366053,93,60.70464528671826
5,7.707707707707708,0.6053124621977414,93,60.70464528671826
5,7.717717717717718,0.5521093109263986,93,60.70464528671826
5,7.727727727727728,0.5017610945112182,93,60.70464528671826
5,7.737737737737738,0.4484358940015228,93,60.70464528671826
5,7.747747747747748,0.4076051745751513,93,60.70464528671826
5,7.757757757757758,0.3579970704594086,93,60.70464528671826
5,7.767767767767768,0.3015863355823569,93,60.70464528671826
5,7.777777777777778,0.2631025054156535,93,60.70464528671826
5,7.787787787787788,0.2153322151725826,93,60.70464528671826
5,7.797797797797798,0.1720882074914259,93,60.70464528671826
5,7.807807807807808,0.1385294032663543,93,60.70464528671826
5,7.817817817817818,0.1157618392671019,93,60.70464528671826
5,7.827827827827828,0.083464818093841,93,60.70464528671826
5,7.837837837837838,0.0539071323280799,93,60.70464528671826
5,7.847847847847848,0.0285362470646924,93,60.70464528671826
5,7.857857857857858,0.0222988634006649,93,60.70464528671826
5,7.867867867867868,0.0100715950467349,93,60.70464528671826
5,7.877877877877878,0.0185956483718679,93,60.70464528671826
5,7.887887887887888,0.0085325386599542,93,60.70464528671826
5,7.897897897897898,0.0095568943880832,93,60.70464528671826
5,7.907907907907908,-0.0025107172031513,93,60.70464528671826
5,7.917917917917918,0.000508134740531,93,60.70464528671826
5,7.927927927927928,-0.0008463681478585,93,60.70464528671826
5,7.937937937937938,0.0107640504789124,93,60.70464528671826
5,7.947947947947948,-0.0046807252815925,93,60.70464528671826
5,7.957957957957958,-0.0134506588844824,93,60.70464528671826
5,7.967967967967968,-0.0192394399924497,93,60.70464528671826
5,7.977977977977978,-0.0166257472271024,93,60.70464528671826
5,7.987987987987988,-0.0482437309107323,93,60.70464528671826
5,7.997997997997998,-0.0636122798370669,93,60.70464528671826
5,8.008008008008009,-0.0928140153426035,93,60.70464528671826
5,8.018018018018019,-0.117678946294706,93,60.70464528671826
5,8.028028028028029,-0.1468170411863636,93,60.70464528671826
5,8.038038038038039,-0.1852737500677925,93,60.70464528671826
5,8.048048048048049,-0.2242451552029103,93,60.70464528671826
5,8.058058058058059,-0.2682703679443882,93,60.70464528671826
5,8.068068068068069,-0.316735540274642,93,60.70464528671826
5,8.078078078078079,-0.3633241753407646,93,60.70464528671826
5,8.088088088088089,-0.4128252393157501,93,60.70464528671826
5,8.098098098098099,-0.4775799311127449,93,60.70464528671826
5,8.108108108108109,-0.5292519199667498,93,60.70464528671826
5,8.118118118118119,-0.5694376713451893,93,60.70464528671826
5,8.128128128128129,-0.6144802327917936,93,60.70464528671826
5,8.138138138138139,-0.6582503992852614,93,60.70464528671826
5,8.148148148148149,-0.6947611751260303,93,60.70464528671826
5,8.158158158158159,-0.7199262097887857,93,60.70464528671826
5,8.168168168168169,-0.7600511804667016,93,60.70464528671826
5,8.178178178178179,-0.7808377702017242,93,60.70464528671826
5,8.188188188188189,-0.7920166195870594,93,60.70464528671826
5,8.198198198198199,-0.7790020156844264,93,60.70464528671826
5,8.208208208208209,-0.774925588294004,93,60.70464528671826
5,8.218218218218219,-0.7525657115671874,93,60.70464528671826
5,8.228228228228229,-0.7267162196717559,93,60.70464528671826
5,8.238238238238239,-0.6856107968203521,93,60.70464528671826
5,8.248248248248249,-0.6402149554380107,93,60.70464528671826
5,8.258258258258259,-0.5891142480991819,93,60.70464528671826
5,8.268268268268269,-0.5305368999278028,93,60.70464528671826
5,8.278278278278279,-0.468788722411139,93,60.70464528671826
5,8.288288288288289,-0.3861695524316144,93,60.70464528671826
5,8.298298298298299,-0.3088667314097131,93,60.70464528671826
5,8.308308308308309,-0.2279504204310357,93,60.70464528671826
5,8.318318318318319,-0.1249570476602389,93,60.70464528671826
5,8.328328328328329,-0.041694117375241,93,60.70464528671826
5,8.338338338338339,0.0548591597870608,93,60.70464528671826
5,8.348348348348349,0.1357995072335352,93,60.70464528671826
5,8.358358358358359,0.2249303105373678,93,60.70464528671826
5,8.368368368368369,0.3139290981175752,93,60.70464528671826
5,8.378378378378379,0.3891911024749896,93,60.70464528671826
5,8.388388388388389,0.4587983250784356,93,60.70464528671826
5,8.398398398398399,0.5277601240134382,93,60.70464528671826
5,8.408408408408409,0.5910187151211328,93,60.70464528671826
5,8.418418418418419,0.6445271694711256,93,60.70464528671826
5,8.428428428428429,0.6932259113731074,93,60.70464528671826
5,8.438438438438439,0.7256447889296298,93,60.70464528671826
5,8.448448448448449,0.7531615876586903,93,60.70464528671826
5,8.458458458458459,0.7803056039733394,93,60.70464528671826
5,8.468468468468469,0.7688815622025709,93,60.70464528671826
5,8.478478478478479,0.782108132228927,93,60.70464528671826
5,8.488488488488489,0.7718770303785182,93,60.70464528671826
5,8.498498498498499,0.754618897959298,93,60.70464528671826
5,8.508508508508509,0.7289563041799356,93,60.70464528671826
5,8.518518518518519,0.6977569093354841,93,60.70464528671826
5,8.528528528528529,0.6539933975072281,93,60.70464528671826
5,8.538538538538539,0.6162629142270729,93,60.70464528671826
5,8.548548548548549,0.5757515061508579,93,60.70464528671826
5,8.558558558558559,0.5307180170000109,93,60.70464528671826
5,8.568568568568569,0.4611353454198398,93,60.70464528671826
5,8.578578578578579,0.423510342152218,93,60.70464528671826
5,8.588588588588589,0.3715410807148582,93,60.70464528671826
5,8.598598598598599,0.3343454075827877,93,60.70464528671826
5,8.608608608608609,0.2732991998230294,93,60.70464528671826
5,8.618618618618619,0.2261624595745273,93,60.70464528671826
5,8.62862862862863,0.175745235353803,93,60.70464528671826
5,8.63863863863864,0.1540339810485276,93,60.70464528671826
5,8.64864864864865,0.1189877234674399,93,60.70464528671826
5,8.65865865865866,0.086010764955161,93,60.70464528671826
5,8.66866866866867,0.0605184967840683,93,60.70464528671826
5,8.67867867867868,0.037328857843977,93,60.70464528671826
5,8.68868868868869,0.0291653458937979,93,60.70464528671826
5,8.6986986986987,0.0096186555354028,93,60.70464528671826
5,8.70870870870871,0.0126765718677325,93,60.70464528671826
5,8.71871871871872,-0.0120277175109067,93,60.70464528671826
5,8.72872872872873,-0.0044866027314537,93,60.70464528671826
5,8.73873873873874,-0.0044173087574613,93,60.70464528671826
5,8.74874874874875,-0.0076660427651798,93,60.70464528671826
5,8.75875875875876,-0.0022565773902277,93,60.70464528671826
5,8.76876876876877,-0.0004446772072283,93,60.70464528671826
5,8.77877877877878,-0.0051197830573446,93,60.70464528671826
5,8.78878878878879,-0.0167545647370674,93,60.70464528671826
5,8.7987987987988,-0.0146460901081213,93,60.70464528671826
5,8.80880880880881,-0.0276937163599805,93,60.70464528671826
5,8.81881881881882,-0.0459371666547468,93,60.70464528671826
5,8.82882882882883,-0.0496100926084946,93,60.70464528671826
5,8.83883883883884,-0.0832925089502232,93,60.70464528671826
5,8.84884884884885,-0.1121564288287933,93,60.70464528671826
5,8.85885885885886,-0.1408752947567937,93,60.70464528671826
5,8.86886886886887,-0.1811211927024876,93,60.70464528671826
5,8.87887887887888,-0.220509769677629,93,60.70464528671826
5,8.88888888888889,-0.2591402346659225,93,60.70464528671826
5,8.8988988988989,-0.3093671422804081,93,60.70464528671826
5,8.90890890890891,-0.3535264347401268,93,60.70464528671826
5,8.91891891891892,-0.3971964944143762,93,60.70464528671826
5,8.92892892892893,-0.4587725351974774,93,60.70464528671826
5,8.93893893893894,-0.50528278785589,93,60.70464528671826
5,8.94894894894895,-0.5477678886132008,93,60.70464528671826
5,8.95895895895896,-0.601727705157241,93,60.70464528671826
5,8.96896896896897,-0.6469610004446347,93,60.70464528671826
5,8.97897897897898,-0.673440555000839,93,60.70464528671826
5,8.98898898898899,-0.7223786141605525,93,60.70464528671826
5,8.998998998999,-0.7437274880988504,93,60.70464528671826
5,9.00900900900901,-0.7663960659929173,93,60.70464528671826
5,9.01901901901902,-0.769105710335702,93,60.70464528671826
5,9.02902902902903,-0.7808699123287941,93,60.70464528671826
5,9.03903903903904,-0.7755736597316438,93,60.70464528671826
5,9.04904904904905,-0.7549778565921338,93,60.70464528671826
5,9.05905905905906,-0.7354736543965693,93,60.70464528671826
5,9.06906906906907,-0.693667213070843,93,60.70464528671826
5,9.07907907907908,-0.6656145587602557,93,60.70464528671826
5,9.08908908908909,-0.6081435338761446,93,60.70464528671826
5,9.0990990990991,-0.5436769747793412,93,60.70464528671826
5,9.10910910910911,-0.4766065978204779,93,60.70464528671826
5,9.11911911911912,-0.4132751436894868,93,60.70464528671826
5,9.12912912912913,-0.3278840025969241,93,60.70464528671826
5,9.13913913913914,-0.2446020902523117,93,60.70464528671826
5,9.14914914914915,-0.1679482770062433,93,60.70464528671826
5,9.15915915915916,-0.0662389418419747,93,60.70464528671826
5,9.16916916916917,0.0279860378960413,93,60.70464528671826
5,9.17917917917918,0.1202176465272438,93,60.70464528671826
5,9.18918918918919,0.2064443205792142,93,60.70464528671826
5,9.1991991991992,0.2911155886577992,93,60.70464528671826
5,9.20920920920921,0.3644109152436955,93,60.70464528671826
5,9.21921921921922,0.4419039473339728,93,60.70464528671826
5,9.22922922922923,0.5167847236680975,93,60.70464528671826
5,9.23923923923924,0.5776803156754391,93,60.70464528671826
5,9.24924924924925,0.6265953888564487,93,60.70464528671826
5,9.25925925925926,0.6835075707345952,93,60.70464528671826
5,9.26926926926927,0.7291761005316462,93,60.70464528671826
5,9.27927927927928,0.7473874007154224,93,60.70464528671826
5,9.28928928928929,0.7621521365779577,93,60.70464528671826
5,9.2992992992993,0.7712632560014181,93,60.70464528671826
5,9.30930930930931,0.7828324189074186,93,60.70464528671826
5,9.31931931931932,0.7842776979914025,93,60.70464528671826
5,9.32932932932933,0.7560846966231042,93,60.70464528671826
5,9.33933933933934,0.7239268112395867,93,60.70464528671826
5,9.34934934934935,0.7017563866785032,93,60.70464528671826
5,9.35935935935936,0.6569106757256746,93,60.70464528671826
5,9.36936936936937,0.6172853062357587,93,60.70464528671826
5,9.37937937937938,0.5748173739504189,93,60.70464528671826
5,9.38938938938939,0.5298515657581538,93,60.70464528671826
5,9.3993993993994,0.483887270208625,93,60.70464528671826
5,9.40940940940941,0.4300801868628882,93,60.70464528671826
5,9.41941941941942,0.3846047889806723,93,60.70464528671826
5,9.42942942942943,0.323419127902765,93,60.70464528671826
5,9.43943943943944,0.2711993804145363,93,60.70464528671826
5,9.44944944944945,0.2356271466108559,93,60.70464528671826
5,9.45945945945946,0.1948711544904896,93,60.70464528671826
5,9.46946946946947,0.1549988020709048,93,60.70464528671826
5,9.47947947947948,0.1264855331201606,93,60.70464528671826
5,9.48948948948949,0.0991520988117272,93,60.70464528671826
5,9.4994994994995,0.0795903076630319,93,60.70464528671826
5,9.50950950950951,0.0531256092459686,93,60.70464528671826
5,9.51951951951952,0.0366892241079831,93,60.70464528671826
5,9.52952952952953,0.0231530996466802,93,60.70464528671826
5,9.53953953953954,0.0035227736474567,93,60.70464528671826
5,9.54954954954955,0.0006662677254951,93,60.70464528671826
5,9.55955955955956,0.0060674685279721,93,60.70464528671826
5,9.56956956956957,-0.0065977453770716,93,60.70464528671826
5,9.57957957957958,-0.0012912946391335,93,60.70464528671826
5,9.58958958958959,-0.0004332553195413,93,60.70464528671826
5,9.5995995995996,-0.0121959889611634,93,60.70464528671826
5,9.60960960960961,-0.0063559262488845,93,60.70464528671826
5,9.61961961961962,-0.0032071390333734,93,60.70464528671826
5,9.62962962962963,-0.0135311022411004,93,60.70464528671826
5,9.63963963963964,-0.0215260886671742,93,60.70464528671826
5,9.64964964964965,-0.0401234359829864,93,60.70464528671826
5,9.65965965965966,-0.0483380622835007,93,60.70464528671826
5,9.66966966966967,-0.0678222136710266,93,60.70464528671826
5,9.67967967967968,-0.1063644798182639,93,60.70464528671826
5,9.68968968968969,-0.1215093562120607,93,60.70464528671826
5,9.6996996996997,-0.1557028868056571,93,60.70464528671826
5,9.70970970970971,-0.2031337524047118,93,60.70464528671826
5,9.71971971971972,-0.253777722146264,93,60.70464528671826
5,9.72972972972973,-0.2912054729009995,93,60.70464528671826
5,9.73973973973974,-0.3450722832132601,93,60.70464528671826
5,9.74974974974975,-0.3928708932450518,93,60.70464528671826
5,9.75975975975976,-0.4334612345637863,93,60.70464528671826
5,9.76976976976977,-0.4926115260204172,93,60.70464528671826
5,9.77977977977978,-0.544203928930602,93,60.70464528671826
5,9.78978978978979,-0.5836358281149022,93,60.70464528671826
5,9.7997997997998,-0.6396201304104213,93,60.70464528671826
5,9.80980980980981,-0.68075429312904,93,60.70464528671826
5,9.81981981981982,-0.707753109677795,93,60.70464528671826
5,9.82982982982983,-0.7451594527687342,93,60.70464528671826
5,9.83983983983984,-0.7544575637050062,93,60.70464528671826
5,9.84984984984985,-0.7754733089874846,93,60.70464528671826
5,9.85985985985986,-0.7758387692897425,93,60.70464528671826
5,9.86986986986987,-0.7889172407819782,93,60.70464528671826
5,9.87987987987988,-0.7650279076851388,93,60.70464528671826
5,9.88988988988989,-0.7382019519650176,93,60.70464528671826
5,9.8998998998999,-0.710171536078753,93,60.70464528671826
5,9.90990990990991,-0.6721025256816217,93,60.70464528671826
5,9.91991991991992,-0.6222288700231641,93,60.70464528671826
5,9.92992992992993,-0.561615532817261,93,60.70464528671826
5,9.93993993993994,-0.4983905418522709,93,60.70464528671826
5,9.94994994994995,-0.4114554047616056,93,60.70464528671826
5,9.95995995995996,-0.3535370658381138,93,60.70464528671826
5,9.96996996996997,-0.2596968809673521,93,60.70464528671826
5,9.97997997997998,-0.1887586581132962,93,60.70464528671826
5,9.98998998998999,-0.0845744756461695,93,60.70464528671826
5,10.0,0.0038939732610162,93,60.70464528671826
